id,#0,#1,#2,#3,#4,#5,#6,#7,time,millisecond
-1,0,0,0,0,0,0,0,0,0:51:51@19/4/2015,220823000 
-1,0,0,0,0,0,0,0,0,0:51:51@19/4/2015,220823009 
-1,0,0,0,0,0,0,0,0,0:51:51@19/4/2015,220823019 
-1,0,0,0,0,0,0,0,0,0:51:51@19/4/2015,220823029 
-1,0,0,0,0,0,0,0,0,0:51:51@19/4/2015,220823039 
-1,0,0,0,0,0,0,0,0,0:51:51@19/4/2015,220823050 
-1,0,0,0,0,0,0,0,0,0:51:51@19/4/2015,220823062 
-1,0,0,0,0,0,0,0,0,0:51:51@19/4/2015,220823073 
-1,0,0,0,0,0,0,0,0,0:51:51@19/4/2015,220823085 
-1,-2,-1,-3,-26,2,-3,-4,-4,0:51:51@19/4/2015,220823098 
-1,-1,-3,-5,-9,9,0,0,-1,0:51:51@19/4/2015,220823112 
-1,-1,-2,1,-4,-11,-2,-2,-1,0:51:51@19/4/2015,220823126 
-1,-1,-2,1,-4,-11,-2,-2,-1,0:51:51@19/4/2015,220823140 
-1,-3,-6,-8,-11,-4,0,-1,-2,0:51:51@19/4/2015,220823155 
-1,0,2,5,-20,-2,-9,-1,-5,0:51:51@19/4/2015,220823171 
-1,-1,2,1,12,-3,-4,-4,0,0:51:51@19/4/2015,220823187 
-1,-5,-6,2,-11,26,5,2,-1,0:51:51@19/4/2015,220823203 
-1,-1,1,-1,-9,-38,-4,-1,-2,0:51:51@19/4/2015,220823219 
-1,-2,-2,-1,-8,-9,-1,-2,-2,0:51:51@19/4/2015,220823236 
-1,-1,-3,6,-3,-18,-8,0,-1,0:51:51@19/4/2015,220823254 
-1,0,-3,-4,0,13,-1,-2,0,0:51:51@19/4/2015,220823282 
-1,-1,0,-8,4,18,-3,-4,-2,0:51:51@19/4/2015,220823300 
-1,1,-2,-4,-9,0,1,-2,-1,0:51:51@19/4/2015,220823319 
-1,2,0,8,24,-16,0,-1,-1,0:51:51@19/4/2015,220823338 
-1,0,6,3,-14,-6,4,-3,1,0:51:51@19/4/2015,220823358 
-1,0,6,3,-14,-6,4,-3,1,0:51:51@19/4/2015,220823367 
-1,-2,-4,-6,-19,5,-7,-4,-3,0:51:51@19/4/2015,220823376 
-1,-1,0,-9,6,-12,2,0,1,0:51:51@19/4/2015,220823385 
-1,-1,0,-9,6,-12,2,0,1,0:51:51@19/4/2015,220823395 
-1,-1,2,-4,-5,-9,-3,-1,-1,0:51:51@19/4/2015,220823405 
-1,2,-1,-1,18,9,3,0,-3,0:51:51@19/4/2015,220823416 
-1,-5,0,4,11,23,-1,0,-2,0:51:51@19/4/2015,220823427 
-1,-5,0,4,11,23,-1,0,-2,0:51:51@19/4/2015,220823439 
-1,1,-1,-1,-13,-5,-6,-5,-4,0:51:51@19/4/2015,220823451 
-1,2,-2,0,-12,-1,-3,-2,-1,0:51:51@19/4/2015,220823464 
-1,-4,0,-6,3,1,1,0,-1,0:51:51@19/4/2015,220823477 
-1,-3,-9,-10,-25,-7,1,-1,-4,0:51:51@19/4/2015,220823490 
-1,-3,-6,-22,10,20,2,1,-2,0:51:51@19/4/2015,220823504 
-1,-2,-1,-7,13,-1,-2,2,0,0:51:51@19/4/2015,220823518 
-1,-2,-2,-2,-1,4,0,1,0,0:51:51@19/4/2015,220823533 
-1,-4,-2,1,2,1,-12,-5,-3,0:51:51@19/4/2015,220823549 
-1,-2,-3,-5,4,7,-2,0,-1,0:51:51@19/4/2015,220823565 
-1,0,-2,-5,-3,-9,0,-1,0,0:51:51@19/4/2015,220823582 
-1,-2,-2,2,-15,-7,1,-2,0,0:51:51@19/4/2015,220823599 
-1,0,3,-6,3,0,3,1,0,0:51:51@19/4/2015,220823616 
-1,-1,0,1,-11,-39,-4,1,-1,0:51:51@19/4/2015,220823634 
-1,-2,-4,-1,-1,-2,-6,-2,-2,0:51:51@19/4/2015,220823653 
-1,0,0,0,1,2,-1,2,0,0:51:51@19/4/2015,220823672 
-1,1,1,3,0,-21,-8,-3,-2,0:51:51@19/4/2015,220823691 
-1,-1,0,-1,0,17,-5,-2,0,0:51:51@19/4/2015,220823711 
-1,-1,0,-1,0,17,-5,-2,0,0:51:51@19/4/2015,220823720 
-1,0,-2,-4,-3,8,-1,-2,-1,0:51:51@19/4/2015,220823729 
-1,0,2,8,10,2,2,3,-1,0:51:51@19/4/2015,220823738 
-1,-2,-3,-2,-9,7,-3,-3,-1,0:51:51@19/4/2015,220823748 
-1,-2,-2,-6,-11,-18,-4,-2,-1,0:51:51@19/4/2015,220823758 
-1,-1,-1,-3,-4,-7,1,-1,-3,0:51:51@19/4/2015,220823769 
-1,-1,-1,2,8,16,1,2,-1,0:51:51@19/4/2015,220823781 
-1,-2,1,-2,-2,-24,-2,-2,-2,0:51:51@19/4/2015,220823793 
-1,0,-2,-6,-9,-4,-2,1,1,0:51:51@19/4/2015,220823805 
-1,-3,-2,-1,9,-1,-2,-2,-2,0:51:51@19/4/2015,220823818 
-1,0,0,-10,-6,-4,3,-1,-2,0:51:51@19/4/2015,220823831 
-1,-3,-3,-8,-4,-1,-8,-4,-4,0:51:51@19/4/2015,220823845 
-1,-1,4,5,3,13,-1,0,0,0:51:51@19/4/2015,220823859 
-1,0,-2,-5,2,2,1,-1,0,0:51:51@19/4/2015,220823874 
-1,-1,0,4,10,-22,-4,-4,-1,0:51:51@19/4/2015,220823889 
-1,0,1,-4,-7,15,-4,-1,0,0:51:51@19/4/2015,220823905 
-1,1,-2,-5,-9,-39,-3,0,-3,0:51:51@19/4/2015,220823922 
-1,1,-2,-5,-9,-39,-3,0,-3,0:51:51@19/4/2015,220823938 
-1,0,1,3,-4,12,-1,-2,-1,0:51:51@19/4/2015,220823955 
-1,0,0,0,6,45,4,1,0,0:51:51@19/4/2015,220823973 
-1,0,-3,-4,4,3,1,1,0,0:51:51@19/4/2015,220823991 
-1,-1,-1,-2,-6,19,-8,-1,-1,0:51:52@19/4/2015,220824009 
-1,-2,-1,3,4,-21,-4,0,-2,0:51:52@19/4/2015,220824030 
-1,-1,-1,3,1,-15,2,1,-1,0:51:52@19/4/2015,220824052 
-1,-1,-4,-1,12,-68,7,0,0,0:51:52@19/4/2015,220824075 
-1,-2,-1,-3,-12,0,0,-1,-1,0:51:52@19/4/2015,220824085 
-1,-1,-2,5,0,6,0,-1,-1,0:51:52@19/4/2015,220824094 
-1,-1,-2,5,0,6,0,-1,-1,0:51:52@19/4/2015,220824105 
-1,-3,-4,-5,-8,19,3,-2,-1,0:51:52@19/4/2015,220824115 
-1,0,-1,-1,-3,20,-12,-6,-1,0:51:52@19/4/2015,220824126 
-1,0,-1,-1,-3,20,-12,-6,-1,0:51:52@19/4/2015,220824138 
-1,-3,-1,-2,-14,0,0,-7,-4,0:51:52@19/4/2015,220824150 
-1,1,1,-2,-2,-43,-10,-1,0,0:51:52@19/4/2015,220824162 
-1,2,2,1,-5,0,-5,-1,-1,0:51:52@19/4/2015,220824174 
-1,-2,-1,3,2,1,1,2,0,0:51:52@19/4/2015,220824187 
-1,2,2,0,13,81,3,0,-1,0:51:52@19/4/2015,220824200 
-1,-3,-2,-5,-11,-50,-12,-8,-4,0:51:52@19/4/2015,220824214 
-1,0,0,-1,3,-11,2,1,-1,0:51:52@19/4/2015,220824228 
-1,-1,1,6,20,13,12,3,2,0:51:52@19/4/2015,220824242 
-1,-1,-2,-3,-1,25,-4,-3,-1,0:51:52@19/4/2015,220824257 
-1,1,-1,1,-6,-2,-1,-2,-1,0:51:52@19/4/2015,220824273 
-1,-2,-3,-1,1,-45,5,1,-1,0:51:52@19/4/2015,220824299 
-1,0,2,-3,-2,-14,-2,0,1,0:51:52@19/4/2015,220824316 
-1,-6,-5,-9,-2,-10,-2,-2,-4,0:51:52@19/4/2015,220824333 
-1,-2,0,-1,-3,83,12,1,0,0:51:52@19/4/2015,220824350 
-1,-3,1,-2,-1,-26,-2,-1,-2,0:51:52@19/4/2015,220824368 
-1,1,-1,2,18,-18,-5,0,-1,0:51:52@19/4/2015,220824387 
-1,-3,-4,-7,-6,-21,2,1,0,0:51:52@19/4/2015,220824406 
-1,1,-1,-7,-5,1,-7,-2,-1,0:51:52@19/4/2015,220824426 
-1,-1,-4,-1,-6,-36,-12,-2,-2,0:51:52@19/4/2015,220824446 
-1,0,-1,-4,-3,-52,-10,-3,-1,0:51:52@19/4/2015,220824455 
-1,0,-1,-4,-3,-52,-10,-3,-1,0:51:52@19/4/2015,220824464 
-1,-1,-2,-1,5,-12,13,-1,-1,0:51:52@19/4/2015,220824474 
-1,-2,0,5,16,6,7,1,1,0:51:52@19/4/2015,220824484 
-1,-2,0,5,16,6,7,1,1,0:51:52@19/4/2015,220824494 
-1,0,3,3,-4,0,4,2,0,0:51:52@19/4/2015,220824505 
-1,-2,-2,0,-4,-2,-9,-3,-2,0:51:52@19/4/2015,220824516 
-1,0,0,2,7,25,20,4,2,0:51:52@19/4/2015,220824528 
-1,0,-1,-2,-13,9,3,0,0,0:51:52@19/4/2015,220824540 
-1,-2,-1,5,3,-11,-7,-3,-2,0:51:52@19/4/2015,220824553 
-1,-1,-3,-4,-5,-14,-16,-4,-4,0:51:52@19/4/2015,220824566 
-1,0,1,-5,-10,0,-13,-5,-4,0:51:52@19/4/2015,220824580 
-1,-3,-2,-1,3,-7,-5,-3,-1,0:51:52@19/4/2015,220824594 
-1,-1,-3,-3,-4,-3,-2,-4,-3,0:51:52@19/4/2015,220824609 
-1,-3,-6,1,10,10,3,0,0,0:51:52@19/4/2015,220824624 
-1,0,2,1,2,15,2,1,0,0:51:52@19/4/2015,220824641 
-1,-3,-2,-4,-2,-3,-1,-3,-2,0:51:52@19/4/2015,220824657 
-1,0,0,2,-9,-1,-4,-1,0,0:51:52@19/4/2015,220824673 
-1,-2,-1,2,2,2,-2,1,0,0:51:52@19/4/2015,220824690 
-1,-3,-6,-9,10,4,7,-1,-3,0:51:52@19/4/2015,220824707 
-1,-1,-2,-4,-13,-12,-13,-3,-1,0:51:52@19/4/2015,220824725 
-1,-2,-4,-2,-3,-3,-2,-4,-3,0:51:52@19/4/2015,220824743 
-1,-1,3,6,2,1,4,4,1,0:51:52@19/4/2015,220824762 
-1,-4,0,-1,-2,4,3,0,-2,0:51:52@19/4/2015,220824782 
-1,0,3,9,5,2,3,-2,-2,0:51:52@19/4/2015,220824801 
-1,1,0,4,-1,-2,-2,-1,0,0:51:52@19/4/2015,220824810 
-1,0,2,6,-8,0,0,-1,1,0:51:52@19/4/2015,220824819 
-1,-1,-2,-5,-2,-10,-3,0,0,0:51:52@19/4/2015,220824828 
-1,-1,-1,-5,2,4,5,1,-2,0:51:52@19/4/2015,220824838 
-1,-1,-1,-2,-4,-6,-4,-2,-3,0:51:52@19/4/2015,220824848 
-1,0,-3,3,5,7,4,0,-2,0:51:52@19/4/2015,220824859 
-1,-2,-1,-2,-5,-4,-3,-2,0,0:51:52@19/4/2015,220824870 
-1,0,-1,-2,8,1,2,-1,1,0:51:52@19/4/2015,220824882 
-1,-1,-3,2,0,3,4,1,-3,0:51:52@19/4/2015,220824894 
-1,0,2,1,-1,0,-3,-1,1,0:51:52@19/4/2015,220824907 
-1,-2,-5,-2,-18,0,-1,-1,-2,0:51:52@19/4/2015,220824920 
-1,-2,-2,1,-4,-2,-1,-1,-1,0:51:52@19/4/2015,220824933 
-1,0,1,4,0,2,-1,0,-2,0:51:52@19/4/2015,220824947 
-1,-3,1,8,18,2,2,-2,-4,0:51:52@19/4/2015,220824961 
-1,-3,-7,-24,-2,0,-6,-3,-2,0:51:52@19/4/2015,220824976 
-1,-1,-2,-11,-2,-1,-2,-2,-1,0:51:52@19/4/2015,220824991 
-1,-2,0,-3,-4,-2,-1,-1,-1,0:51:53@19/4/2015,220825007 
-1,3,10,23,19,18,3,2,2,0:51:53@19/4/2015,220825023 
-1,0,-2,-14,-19,-15,4,-1,2,0:51:53@19/4/2015,220825040 
-1,-4,-5,-3,1,-3,-9,-4,-2,0:51:53@19/4/2015,220825057 
-1,-2,-4,7,38,8,-4,-1,0,0:51:53@19/4/2015,220825075 
-1,-3,-2,0,-21,-4,-4,-6,-3,0:51:53@19/4/2015,220825093 
-1,3,3,23,-13,7,8,2,0,0:51:53@19/4/2015,220825112 
-1,-2,-2,7,16,2,-4,-2,-3,0:51:53@19/4/2015,220825131 
-1,-3,-3,-13,18,10,5,1,0,0:51:53@19/4/2015,220825152 
-1,-2,-4,-15,-17,1,-6,-3,-2,0:51:53@19/4/2015,220825161 
-1,-1,-1,10,-32,-11,-2,-1,-2,0:51:53@19/4/2015,220825170 
-1,-1,-1,10,-32,-11,-2,-1,-2,0:51:53@19/4/2015,220825179 
-1,1,3,13,2,0,5,2,0,0:51:53@19/4/2015,220825190 
-1,1,3,13,2,0,5,2,0,0:51:53@19/4/2015,220825200 
-1,-1,-1,2,-4,2,-5,-2,0,0:51:53@19/4/2015,220825211 
-1,-2,-4,-7,4,1,4,-1,-1,0:51:53@19/4/2015,220825222 
-1,0,-3,-14,13,-2,-5,-3,0,0:51:53@19/4/2015,220825234 
-1,0,-3,-7,24,-3,12,0,-1,0:51:53@19/4/2015,220825246 
-1,-1,4,16,-1,-12,-13,-5,-3,0:51:53@19/4/2015,220825259 
-1,1,2,-7,-7,6,10,2,1,0:51:53@19/4/2015,220825272 
-1,0,-3,-1,-9,-9,-6,-1,-2,0:51:53@19/4/2015,220825286 
-1,-1,-3,0,-10,-6,-4,0,-3,0:51:53@19/4/2015,220825300 
-1,-3,-2,-7,0,6,-2,1,-1,0:51:53@19/4/2015,220825317 
-1,-1,0,12,-8,-5,-1,-4,-3,0:51:53@19/4/2015,220825332 
-1,-2,2,11,-1,2,3,0,0,0:51:53@19/4/2015,220825348 
-1,-1,-1,-2,-2,0,-2,-1,-1,0:51:53@19/4/2015,220825364 
-1,-1,0,5,-2,-1,-1,1,0,0:51:53@19/4/2015,220825380 
-1,-3,-2,-6,-17,-4,-3,-1,-2,0:51:53@19/4/2015,220825397 
-1,-2,-1,0,-4,-4,-1,0,0,0:51:53@19/4/2015,220825415 
-1,1,2,-4,1,-1,-3,-1,-2,0:51:53@19/4/2015,220825433 
-1,0,2,2,-2,0,-1,0,0,0:51:53@19/4/2015,220825451 
-1,-3,-6,-4,-7,3,4,0,-1,0:51:53@19/4/2015,220825470 
-1,0,0,-1,-19,-2,-5,-1,0,0:51:53@19/4/2015,220825489 
-1,-2,0,-1,-2,-2,-2,-3,-2,0:51:53@19/4/2015,220825509 
-1,-1,-1,-3,-4,-3,-2,-1,-3,0:51:53@19/4/2015,220825518 
-1,-2,-1,4,10,3,0,-1,1,0:51:53@19/4/2015,220825527 
-1,-2,-1,4,10,3,0,-1,1,0:51:53@19/4/2015,220825536 
-1,-3,-2,-8,-22,-3,-3,-3,-1,0:51:53@19/4/2015,220825546 
-1,1,-3,-4,-5,-1,-2,-1,0,0:51:53@19/4/2015,220825556 
-1,1,-3,-4,-5,-1,-2,-1,0,0:51:53@19/4/2015,220825566 
0,5,-4,-4,-1,-4,-2,-1,-1,0:51:53@19/4/2015,220825578 
0,-9,-1,-5,2,-3,-1,-2,-3,0:51:53@19/4/2015,220825590 
0,-11,-1,-4,-3,-5,-1,-3,-3,0:51:53@19/4/2015,220825602 
0,0,-3,-2,-7,-3,-3,-2,-2,0:51:53@19/4/2015,220825615 
0,1,-1,0,2,0,-3,-2,0,0:51:53@19/4/2015,220825628 
0,-3,-1,-2,1,-5,-3,-2,-2,0:51:53@19/4/2015,220825641 
0,8,-1,-3,-5,-4,-2,-2,-1,0:51:53@19/4/2015,220825656 
0,0,-2,0,0,-3,-2,0,0,0:51:53@19/4/2015,220825670 
0,-2,-3,-2,1,2,2,-4,-2,0:51:53@19/4/2015,220825685 
0,4,0,0,1,0,-6,-2,-1,0:51:53@19/4/2015,220825701 
0,-7,-4,-4,-5,-4,-2,-1,-3,0:51:53@19/4/2015,220825717 
0,1,3,2,6,1,-2,-5,-4,0:51:53@19/4/2015,220825734 
0,-3,-6,-4,-3,2,1,-1,-1,0:51:53@19/4/2015,220825751 
0,2,0,-1,1,3,3,0,1,0:51:53@19/4/2015,220825768 
0,-4,-4,-3,0,1,-2,-1,-2,0:51:53@19/4/2015,220825786 
0,2,1,1,-9,15,3,0,1,0:51:53@19/4/2015,220825804 
0,-1,-2,-2,-5,-9,-2,-1,-1,0:51:53@19/4/2015,220825823 
0,-3,-1,1,1,3,0,-1,-1,0:51:53@19/4/2015,220825843 
0,-1,-3,-6,-10,-8,-1,-2,-1,0:51:53@19/4/2015,220825863 
0,-3,-2,8,-12,-7,1,-1,-2,0:51:53@19/4/2015,220825872 
0,-2,-3,-7,5,-1,-4,-3,-3,0:51:53@19/4/2015,220825881 
0,2,1,0,-2,-1,5,2,1,0:51:53@19/4/2015,220825890 
0,-1,-4,-2,-1,-4,-6,-2,-4,0:51:53@19/4/2015,220825900 
0,-2,-1,-1,-7,-1,-3,-3,-1,0:51:53@19/4/2015,220825910 
0,-9,1,1,2,-2,1,0,0,0:51:53@19/4/2015,220825921 
0,-3,-2,-5,1,2,-1,1,0,0:51:53@19/4/2015,220825932 
0,3,-2,-1,3,-1,-4,-2,-1,0:51:53@19/4/2015,220825944 
0,1,-2,-4,-7,-7,-8,-4,-1,0:51:53@19/4/2015,220825956 
0,1,2,10,6,1,2,0,-1,0:51:53@19/4/2015,220825968 
0,-2,-1,-5,4,-2,7,2,1,0:51:53@19/4/2015,220825981 
0,-2,-1,-4,15,0,-5,-3,-4,0:51:53@19/4/2015,220825994 
0,1,0,0,-10,0,1,0,1,0:51:54@19/4/2015,220826008 
0,1,0,-1,0,0,-3,-2,-3,0:51:54@19/4/2015,220826025 
0,0,-2,0,0,1,-2,0,-1,0:51:54@19/4/2015,220826043 
0,-1,1,3,6,-4,0,-2,-2,0:51:54@19/4/2015,220826060 
0,-4,-2,-6,-15,-1,2,0,0,0:51:54@19/4/2015,220826078 
0,-3,-1,-1,-9,4,-1,-3,-1,0:51:54@19/4/2015,220826096 
0,-3,-1,0,-3,-2,0,-2,-2,0:51:54@19/4/2015,220826113 
0,1,-1,-3,-3,-1,0,0,-1,0:51:54@19/4/2015,220826132 
0,3,0,0,7,4,2,-1,0,0:51:54@19/4/2015,220826150 
0,-3,0,-1,0,-5,2,-2,0,0:51:54@19/4/2015,220826169 
0,-2,-1,0,-3,-5,-7,-1,-1,0:51:54@19/4/2015,220826188 
0,0,-1,3,0,14,-3,0,-1,0:51:54@19/4/2015,220826208 
0,-2,-5,1,10,-1,-3,-5,-2,0:51:54@19/4/2015,220826228 
0,-2,-4,-1,-10,5,12,3,-1,0:51:54@19/4/2015,220826237 
0,-2,-1,-2,6,8,10,6,0,0:51:54@19/4/2015,220826246 
0,-1,2,5,14,-17,-7,0,0,0:51:54@19/4/2015,220826255 
0,-1,-4,-8,-10,-5,1,-3,-1,0:51:54@19/4/2015,220826265 
0,0,1,-5,-14,-19,-3,-3,-3,0:51:54@19/4/2015,220826275 
0,3,4,3,-18,11,13,3,2,0:51:54@19/4/2015,220826286 
0,-2,-1,0,4,-18,-16,-5,-1,0:51:54@19/4/2015,220826298 
0,-2,-2,-2,11,3,-12,-6,-2,0:51:54@19/4/2015,220826309 
0,1,1,-3,-8,-18,0,3,-1,0:51:54@19/4/2015,220826322 
0,1,1,-3,-8,-18,0,3,-1,0:51:54@19/4/2015,220826335 
0,-3,-3,-4,0,20,-4,-4,-3,0:51:54@19/4/2015,220826348 
0,-5,-2,1,8,-11,3,3,-1,0:51:54@19/4/2015,220826361 
0,-1,1,0,16,43,14,0,-1,0:51:54@19/4/2015,220826375 
0,1,-3,-2,-6,43,5,-1,-3,0:51:54@19/4/2015,220826390 
0,0,-1,5,17,15,-2,-1,0,0:51:54@19/4/2015,220826405 
0,-1,-2,-5,-18,-4,-11,-3,-1,0:51:54@19/4/2015,220826421 
0,0,0,-3,4,85,25,4,1,0:51:54@19/4/2015,220826437 
0,-3,1,3,-14,-80,-12,0,0,0:51:54@19/4/2015,220826453 
0,0,1,2,-3,-64,-11,-6,3,0:51:54@19/4/2015,220826470 
0,-4,0,-1,10,-9,0,-2,-6,0:51:54@19/4/2015,220826488 
0,-3,-2,-6,2,-25,-9,-5,-5,0:51:54@19/4/2015,220826506 
0,-1,-3,-1,0,15,9,2,0,0:51:54@19/4/2015,220826525 
0,-2,1,-1,-7,66,1,-2,2,0:51:54@19/4/2015,220826544 
0,-3,-1,-2,3,-19,-7,1,-4,0:51:54@19/4/2015,220826564 
0,0,-5,-7,15,10,3,-5,-2,0:51:54@19/4/2015,220826584 
0,-15,0,3,-16,-28,-2,0,-4,0:51:54@19/4/2015,220826593 
0,-15,0,3,-16,-28,-2,0,-4,0:51:54@19/4/2015,220826602 
0,0,0,-1,-10,-4,0,0,3,0:51:54@19/4/2015,220826612 
0,-3,0,1,1,18,9,4,-2,0:51:54@19/4/2015,220826622 
0,2,0,0,3,-4,-22,-5,-5,0:51:54@19/4/2015,220826632 
0,-2,-1,2,4,-25,17,7,3,0:51:54@19/4/2015,220826643 
0,-1,-4,-6,0,27,0,0,-2,0:51:54@19/4/2015,220826654 
0,1,1,4,-4,-19,-9,-4,-1,0:51:54@19/4/2015,220826666 
0,4,-1,-1,-2,-8,-4,2,-2,0:51:54@19/4/2015,220826678 
0,3,-2,2,5,4,-5,-5,-3,0:51:54@19/4/2015,220826690 
0,1,0,-2,-3,1,10,0,0,0:51:54@19/4/2015,220826703 
0,2,1,3,-6,11,-3,1,-2,0:51:54@19/4/2015,220826717 
0,-1,-2,-2,2,-9,-7,-6,1,0:51:54@19/4/2015,220826731 
0,-3,-1,1,5,-19,-17,-3,-2,0:51:54@19/4/2015,220826745 
0,2,-3,-9,-7,5,3,0,2,0:51:54@19/4/2015,220826760 
0,0,-2,-3,-1,-8,-5,-1,-2,0:51:54@19/4/2015,220826775 
0,-2,-3,5,-5,4,-4,-3,-2,0:51:54@19/4/2015,220826791 
0,-2,0,3,-10,28,3,-4,-1,0:51:54@19/4/2015,220826807 
0,-4,-4,-9,4,34,-2,-2,-1,0:51:54@19/4/2015,220826824 
0,1,-1,1,4,0,8,3,-1,0:51:54@19/4/2015,220826842 
0,-2,1,-2,-5,-6,-3,-4,-3,0:51:54@19/4/2015,220826860 
0,-1,1,5,-4,1,-6,1,0,0:51:54@19/4/2015,220826878 
0,-3,1,-1,-2,-13,-5,-8,-2,0:51:54@19/4/2015,220826897 
0,-1,2,-3,-6,-10,-11,-4,-2,0:51:54@19/4/2015,220826916 
0,1,-2,-8,13,51,2,9,3,0:51:54@19/4/2015,220826936 
0,0,0,-4,-5,-26,-3,-7,-1,0:51:54@19/4/2015,220826945 
0,-1,1,10,21,-40,-14,-3,-2,0:51:54@19/4/2015,220826954 
0,-2,-1,-1,-6,-26,1,-2,-2,0:51:54@19/4/2015,220826963 
0,-1,-4,-6,-14,-24,-6,-4,-2,0:51:54@19/4/2015,220826973 
0,-1,-3,-5,-3,-10,-1,-2,0,0:51:54@19/4/2015,220826983 
0,-1,-3,-5,-3,-10,-1,-2,0,0:51:54@19/4/2015,220826994 
0,1,-2,-3,7,3,2,3,0,0:51:55@19/4/2015,220827005 
0,-3,-1,-3,-21,3,1,-11,-5,0:51:55@19/4/2015,220827017 
0,-2,-3,-5,-5,-30,-2,16,4,0:51:55@19/4/2015,220827029 
0,2,0,-3,2,48,-21,-12,2,0:51:55@19/4/2015,220827042 
0,0,4,5,-6,-6,15,15,4,0:51:55@19/4/2015,220827055 
0,-1,0,-1,-3,-32,-6,-6,-2,0:51:55@19/4/2015,220827069 
0,-2,-1,-1,-4,-9,-8,-1,-1,0:51:55@19/4/2015,220827083 
0,-1,0,0,2,8,8,-3,-2,0:51:55@19/4/2015,220827098 
0,0,0,1,3,-23,24,-5,1,0:51:55@19/4/2015,220827113 
0,-3,-1,2,-7,-32,-32,-27,-8,0:51:55@19/4/2015,220827128 
0,2,1,-6,7,16,30,13,4,0:51:55@19/4/2015,220827144 
0,-2,-4,-4,-4,-3,11,-3,-3,0:51:55@19/4/2015,220827161 
0,0,1,9,1,-11,9,-5,0,0:51:55@19/4/2015,220827178 
0,-1,-1,-6,-6,13,35,-2,-5,0:51:55@19/4/2015,220827195 
0,-1,0,2,-5,-40,-45,-22,-3,0:51:55@19/4/2015,220827213 
0,1,0,3,7,-31,-15,-8,2,0:51:55@19/4/2015,220827231 
0,-3,-4,-6,-1,9,6,-1,-4,0:51:55@19/4/2015,220827250 
0,-2,-2,0,-9,-12,2,-4,-2,0:51:55@19/4/2015,220827269 
0,-1,-1,1,-3,21,4,-2,-3,0:51:55@19/4/2015,220827289 
0,0,-1,0,8,5,-3,3,0,0:51:55@19/4/2015,220827298 
0,0,0,0,-1,26,13,5,-1,0:51:55@19/4/2015,220827306 
0,0,0,0,-1,26,13,5,-1,0:51:55@19/4/2015,220827315 
0,-2,-3,-8,0,-12,17,-3,-2,0:51:55@19/4/2015,220827325 
0,-2,-1,2,1,-4,-13,-4,-1,0:51:55@19/4/2015,220827335 
0,-4,-2,3,5,20,-8,-1,-2,0:51:55@19/4/2015,220827351 
0,2,1,2,3,14,8,5,1,0:51:55@19/4/2015,220827362 
0,2,1,2,3,14,8,5,1,0:51:55@19/4/2015,220827373 
0,-2,-3,-5,-5,-40,-16,-8,-2,0:51:55@19/4/2015,220827386 
0,-1,1,0,-4,-4,7,-2,-2,0:51:55@19/4/2015,220827399 
0,2,1,3,1,-30,-20,0,1,0:51:55@19/4/2015,220827412 
0,-1,1,8,13,-13,-5,3,0,0:51:55@19/4/2015,220827425 
0,-2,-5,-6,-8,12,-4,-7,-3,0:51:55@19/4/2015,220827439 
0,-3,-1,0,11,48,7,-6,-2,0:51:55@19/4/2015,220827453 
0,-2,-2,-3,-12,9,-10,-6,-2,0:51:55@19/4/2015,220827468 
0,-2,0,2,-2,-8,-10,-3,-2,0:51:55@19/4/2015,220827484 
0,-1,-2,3,-6,12,4,-7,-1,0:51:55@19/4/2015,220827500 
0,-2,2,3,19,0,-3,2,2,0:51:55@19/4/2015,220827517 
0,-1,-3,-1,-6,19,-4,-1,0,0:51:55@19/4/2015,220827534 
0,-2,-5,-2,1,24,-12,1,-2,0:51:55@19/4/2015,220827552 
0,1,3,-10,-11,-39,3,0,2,0:51:55@19/4/2015,220827570 
0,0,0,4,6,-17,9,5,1,0:51:55@19/4/2015,220827589 
0,-2,-7,-16,2,8,4,4,-2,0:51:55@19/4/2015,220827608 
0,0,0,-3,-22,-22,-4,-3,-3,0:51:55@19/4/2015,220827627 
0,-2,2,6,-6,7,4,2,0,0:51:55@19/4/2015,220827647 
0,-2,2,6,-6,7,4,2,0,0:51:55@19/4/2015,220827655 
0,-5,-6,-12,-11,-54,-9,-4,-2,0:51:55@19/4/2015,220827664 
0,-5,-6,-12,-11,-54,-9,-4,-2,0:51:55@19/4/2015,220827674 
0,6,15,25,-2,-79,2,5,4,0:51:55@19/4/2015,220827684 
0,-6,-12,-21,-23,-41,-19,-10,-6,0:51:55@19/4/2015,220827695 
0,4,5,6,-10,-18,-4,3,2,0:51:55@19/4/2015,220827706 
0,4,5,6,-10,-18,-4,3,2,0:51:55@19/4/2015,220827717 
0,1,-1,-3,-16,86,7,0,0,0:51:55@19/4/2015,220827729 
0,-2,-2,-3,-10,78,-4,-1,0,0:51:55@19/4/2015,220827741 
0,-2,-4,-6,-18,-63,-14,-9,-6,0:51:55@19/4/2015,220827754 
0,1,4,6,27,38,10,-2,-1,0:51:55@19/4/2015,220827767 
0,0,0,1,-18,-52,-8,-3,0,0:51:55@19/4/2015,220827781 
0,-2,2,2,12,2,11,9,1,0:51:55@19/4/2015,220827796 
0,-5,-8,-11,12,59,-2,-14,-9,0:51:55@19/4/2015,220827811 
0,-4,0,4,-15,-8,-6,3,-3,0:51:55@19/4/2015,220827826 
0,0,-1,2,11,20,1,12,1,0:51:55@19/4/2015,220827842 
0,-6,-3,-8,-12,-6,-6,-33,-12,0:51:55@19/4/2015,220827858 
0,-4,-1,-2,1,-30,-8,-27,-6,0:51:55@19/4/2015,220827875 
0,1,-2,2,-16,4,-3,-12,-3,0:51:55@19/4/2015,220827892 
0,-1,1,2,17,6,3,1,1,0:51:55@19/4/2015,220827910 
0,1,-2,-3,13,-20,-5,-2,-3,0:51:55@19/4/2015,220827928 
2,-1,2,7,7,13,4,-10,-2,0:51:55@19/4/2015,220827946 
2,-1,1,3,2,-7,-9,-3,-5,0:51:55@19/4/2015,220827965 
2,-3,-1,-2,-5,15,-2,-3,-3,0:51:55@19/4/2015,220827985 
2,0,-1,-1,-1,5,-6,0,-1,0:51:56@19/4/2015,220828006 
2,-3,-4,-3,-4,-16,-9,-4,-2,0:51:56@19/4/2015,220828016 
2,0,2,2,0,8,-1,-1,-1,0:51:56@19/4/2015,220828026 
2,0,2,2,0,8,-1,-1,-1,0:51:56@19/4/2015,220828036 
2,0,-1,0,-11,-27,-1,2,1,0:51:56@19/4/2015,220828047 
2,-1,-2,-4,-6,20,6,-2,-2,0:51:56@19/4/2015,220828058 
2,0,1,1,-1,-24,-6,-2,0,0:51:56@19/4/2015,220828070 
2,-2,-5,-5,-32,10,-2,-2,-2,0:51:56@19/4/2015,220828082 
2,-2,-5,-5,-32,10,-2,-2,-2,0:51:56@19/4/2015,220828094 
2,-3,-5,-6,19,28,-1,-3,-1,0:51:56@19/4/2015,220828107 
0,2,0,1,-32,-24,-3,-1,-2,0:51:56@19/4/2015,220828120 
0,-1,-4,-6,-7,11,3,-1,-2,0:51:56@19/4/2015,220828135 
0,-2,-2,1,0,15,7,2,0,0:51:56@19/4/2015,220828149 
0,-2,-2,-3,1,-28,-5,-4,-2,0:51:56@19/4/2015,220828163 
0,-3,-3,-8,-8,-24,-3,-3,-2,0:51:56@19/4/2015,220828179 
0,-1,-1,0,-6,-12,8,1,-1,0:51:56@19/4/2015,220828194 
0,0,-2,-3,7,0,-7,-1,0,0:51:56@19/4/2015,220828210 
0,0,-1,0,-4,0,-7,-1,1,0:51:56@19/4/2015,220828226 
0,-1,-1,1,30,0,-2,2,-1,0:51:56@19/4/2015,220828242 
0,0,0,-3,-2,21,6,-1,0,0:51:56@19/4/2015,220828259 
0,-1,-3,-3,3,-33,-7,-4,-1,0:51:56@19/4/2015,220828276 
0,0,-1,3,2,-1,0,-2,1,0:51:56@19/4/2015,220828294 
0,1,1,3,-7,-5,3,1,1,0:51:56@19/4/2015,220828312 
0,-6,-8,-8,4,-13,-8,-3,-5,0:51:56@19/4/2015,220828331 
0,0,2,0,-1,5,-4,-4,-2,0:51:56@19/4/2015,220828350 
0,-1,-2,-2,-11,-1,4,2,-1,0:51:56@19/4/2015,220828370 
0,-1,-4,-11,-2,18,0,-2,-1,0:51:56@19/4/2015,220828379 
0,-3,-2,-2,8,39,2,-1,-1,0:51:56@19/4/2015,220828388 
0,-2,-1,2,1,-56,-2,-1,-2,0:51:56@19/4/2015,220828397 
0,-1,-1,-3,-3,5,8,0,-3,0:51:56@19/4/2015,220828407 
0,1,0,0,-9,-14,-9,-1,1,0:51:56@19/4/2015,220828418 
0,-3,-2,-4,-7,-2,-6,-2,-2,0:51:56@19/4/2015,220828429 
0,-3,-4,-4,-5,41,5,-2,-1,0:51:56@19/4/2015,220828440 
0,0,1,2,-19,-11,-1,-1,-1,0:51:56@19/4/2015,220828452 
0,-1,0,-1,0,-28,-4,-3,-1,0:51:56@19/4/2015,220828464 
0,-1,-3,-5,3,9,-2,-2,-2,0:51:56@19/4/2015,220828477 
0,0,1,0,4,7,0,-1,-1,0:51:56@19/4/2015,220828491 
0,0,0,-1,8,-12,-5,0,-1,0:51:56@19/4/2015,220828505 
0,-3,-4,0,6,5,-6,-5,-5,0:51:56@19/4/2015,220828519 
0,0,1,1,6,12,0,-1,-1,0:51:56@19/4/2015,220828533 
0,-2,-4,-3,-2,-22,-4,-2,-2,0:51:56@19/4/2015,220828548 
0,-1,-3,-3,14,1,-1,0,-3,0:51:56@19/4/2015,220828563 
0,0,0,0,2,-13,-5,-2,-2,0:51:56@19/4/2015,220828579 
0,-3,-3,-7,12,15,-2,-1,-2,0:51:56@19/4/2015,220828595 
0,0,2,3,-15,-44,-3,-3,1,0:51:56@19/4/2015,220828612 
0,-4,-2,-1,-6,3,-2,-1,-2,0:51:56@19/4/2015,220828629 
0,-2,0,-5,7,-5,-1,-2,-1,0:51:56@19/4/2015,220828647 
0,1,-1,-2,3,-5,0,0,0,0:51:56@19/4/2015,220828665 
0,2,-2,-4,-1,8,0,-4,-5,0:51:56@19/4/2015,220828684 
0,-6,2,2,-7,18,2,1,2,0:51:56@19/4/2015,220828704 
0,3,3,8,0,2,3,0,-1,0:51:56@19/4/2015,220828724 
0,0,1,-2,-7,-5,0,-8,-4,0:51:56@19/4/2015,220828733 
0,-2,-4,-2,21,-5,-3,1,0,0:51:56@19/4/2015,220828742 
0,-2,-4,-2,21,-5,-3,1,0,0:51:56@19/4/2015,220828751 
0,16,1,0,-12,5,-1,1,1,0:51:56@19/4/2015,220828761 
0,-17,-1,-1,-19,-6,-1,1,-9,0:51:56@19/4/2015,220828771 
0,-12,-3,-4,-2,7,-1,-1,-2,0:51:56@19/4/2015,220828782 
0,-1,0,4,11,-2,-1,-2,-2,0:51:56@19/4/2015,220828793 
0,2,3,5,-4,21,4,4,5,0:51:56@19/4/2015,220828805 
0,-4,-3,0,-4,-14,-2,-2,-7,0:51:56@19/4/2015,220828817 
0,2,-3,-8,-10,-4,-1,1,0,0:51:56@19/4/2015,220828830 
0,-4,1,0,12,7,0,-2,-3,0:51:56@19/4/2015,220828843 
0,-4,-2,-3,1,7,-1,0,-1,0:51:56@19/4/2015,220828857 
0,6,-1,-2,-5,-1,-1,-2,5,0:51:56@19/4/2015,220828871 
0,-6,-2,0,1,21,-2,-2,-4,0:51:56@19/4/2015,220828886 
0,-6,-2,-2,1,-8,-1,-1,-4,0:51:56@19/4/2015,220828901 
0,1,1,0,-4,-8,-2,-2,4,0:51:56@19/4/2015,220828917 
0,-1,-2,-4,-4,-3,0,0,-3,0:51:56@19/4/2015,220828933 
0,-4,-1,-4,-5,-15,-3,-2,-2,0:51:56@19/4/2015,220828949 
0,0,1,0,-8,5,-2,-1,-4,0:51:56@19/4/2015,220828966 
0,-1,-4,-6,9,0,-2,-2,0,0:51:56@19/4/2015,220828983 
0,-6,-2,0,-9,-7,-3,-1,-1,0:51:57@19/4/2015,220829001 
0,0,-1,-2,25,17,2,0,-1,0:51:57@19/4/2015,220829019 
0,2,-2,-2,-4,-23,-4,-2,2,0:51:57@19/4/2015,220829038 
0,1,0,-1,-22,-14,-2,-1,1,0:51:57@19/4/2015,220829057 
0,1,0,-2,-6,15,0,-1,-4,0:51:57@19/4/2015,220829077 
0,-3,-3,-3,-4,-3,-1,-2,-3,0:51:57@19/4/2015,220829086 
0,-1,-2,1,-11,-11,-1,-1,2,0:51:57@19/4/2015,220829095 
0,-3,2,1,4,9,1,-1,-2,0:51:57@19/4/2015,220829104 
0,-2,-1,-3,-12,-13,-2,-1,0,0:51:57@19/4/2015,220829114 
0,-3,-2,-3,8,-1,-1,-2,-2,0:51:57@19/4/2015,220829124 
0,-1,-1,0,-14,-9,-3,-1,-1,0:51:57@19/4/2015,220829135 
0,-2,1,-2,0,4,2,-1,-2,0:51:57@19/4/2015,220829146 
0,-2,-3,-3,-11,4,-2,-2,-3,0:51:57@19/4/2015,220829157 
0,-2,-3,-3,-11,4,-2,-2,-3,0:51:57@19/4/2015,220829169 
0,-1,-2,-1,10,24,2,0,0,0:51:57@19/4/2015,220829182 
0,-3,-4,-4,1,11,0,-1,-1,0:51:57@19/4/2015,220829196 
0,-1,-2,-1,-1,-5,-2,-1,-2,0:51:57@19/4/2015,220829209 
0,-2,1,-1,1,7,0,-1,-1,0:51:57@19/4/2015,220829223 
0,-1,-4,-3,9,11,1,0,-1,0:51:57@19/4/2015,220829237 
0,0,-1,-2,-1,14,-4,-2,-2,0:51:57@19/4/2015,220829252 
0,0,0,0,5,-1,-1,-1,-1,0:51:57@19/4/2015,220829268 
0,0,-1,0,9,8,-1,-1,-2,0:51:57@19/4/2015,220829285 
0,-1,-1,0,25,8,-2,-3,-1,0:51:57@19/4/2015,220829302 
0,0,2,1,6,-9,1,0,1,0:51:57@19/4/2015,220829319 
0,0,-1,-1,-8,-17,-2,-2,-2,0:51:57@19/4/2015,220829336 
0,-2,-3,-1,-4,21,0,0,-2,0:51:57@19/4/2015,220829354 
0,3,0,0,-11,11,1,0,2,0:51:57@19/4/2015,220829372 
0,-4,-3,-4,3,2,0,0,0,0:51:57@19/4/2015,220829391 
0,-2,-1,0,6,-6,-3,-2,-1,0:51:57@19/4/2015,220829410 
0,-2,-1,-2,2,-15,-4,-2,0,0:51:57@19/4/2015,220829430 
0,-2,-1,-2,2,-15,-4,-2,0,0:51:57@19/4/2015,220829439 
0,-1,0,0,7,7,-1,0,0,0:51:57@19/4/2015,220829448 
0,0,-2,1,7,5,-1,-1,0,0:51:57@19/4/2015,220829457 
0,0,-2,1,7,5,-1,-1,0,0:51:57@19/4/2015,220829467 
0,4,-1,0,11,-9,0,0,0,0:51:57@19/4/2015,220829477 
0,3,0,-1,-3,-14,-2,-1,5,0:51:57@19/4/2015,220829488 
0,3,0,-1,-3,-14,-2,-1,5,0:51:57@19/4/2015,220829499 
0,-4,-1,-4,-11,-10,-2,-1,-5,0:51:57@19/4/2015,220829510 
0,-4,-3,-2,-9,-2,-4,-2,-2,0:51:57@19/4/2015,220829522 
0,-2,0,1,3,4,1,-1,-1,0:51:57@19/4/2015,220829535 
0,-1,-1,1,16,23,1,-1,-2,0:51:57@19/4/2015,220829548 
0,-3,-1,3,0,1,1,1,0,0:51:57@19/4/2015,220829562 
0,1,0,0,-1,-4,-1,-1,-3,0:51:57@19/4/2015,220829576 
0,7,0,-1,-1,1,-1,-1,1,0:51:57@19/4/2015,220829591 
0,-6,-3,-3,6,1,0,-1,-3,0:51:57@19/4/2015,220829606 
0,-2,-1,-2,-11,-11,-4,-3,-3,0:51:57@19/4/2015,220829621 
0,-2,0,-3,4,5,-1,0,-3,0:51:57@19/4/2015,220829637 
0,0,-2,-1,-1,1,2,-1,-5,0:51:57@19/4/2015,220829653 
0,-2,-2,-3,-11,-6,-2,-2,-1,0:51:57@19/4/2015,220829670 
0,-1,-3,-1,0,-1,-1,-1,-1,0:51:57@19/4/2015,220829687 
0,-1,1,0,1,1,2,-1,0,0:51:57@19/4/2015,220829705 
0,-3,-2,-3,10,11,-2,-1,-2,0:51:57@19/4/2015,220829723 
0,-2,-1,-1,-12,2,-3,-1,-3,0:51:57@19/4/2015,220829742 
0,0,0,-2,-1,-2,-3,-4,-2,0:51:57@19/4/2015,220829761 
0,-1,-3,-1,11,11,-1,-1,0,0:51:57@19/4/2015,220829781 
0,1,1,2,1,4,-2,-1,-1,0:51:57@19/4/2015,220829790 
0,1,1,2,1,4,-2,-1,-1,0:51:57@19/4/2015,220829799 
0,-3,-1,-3,-6,-13,-2,-1,-2,0:51:57@19/4/2015,220829808 
0,-3,-1,-3,-6,-13,-2,-1,-2,0:51:57@19/4/2015,220829818 
0,0,-1,-3,-8,-5,-2,0,-1,0:51:57@19/4/2015,220829828 
0,-1,0,-1,2,2,-1,-1,-2,0:51:57@19/4/2015,220829839 
0,-1,0,-1,2,2,-1,-1,-2,0:51:57@19/4/2015,220829850 
0,-3,-1,-1,-4,-6,0,-2,-1,0:51:57@19/4/2015,220829861 
0,-2,-2,-3,-13,-24,-3,-4,1,0:51:57@19/4/2015,220829873 
0,0,-1,0,5,-1,-1,-1,-2,0:51:57@19/4/2015,220829886 
0,-1,0,-1,-15,-9,-2,-2,-1,0:51:57@19/4/2015,220829899 
0,-1,0,-1,-15,-9,-2,-2,-1,0:51:57@19/4/2015,220829912 
0,-2,-3,-4,-14,-2,-2,-1,-1,0:51:57@19/4/2015,220829926 
0,-2,-2,-5,-2,0,1,0,-2,0:51:57@19/4/2015,220829940 
0,-1,1,1,13,16,0,-1,-1,0:51:57@19/4/2015,220829955 
0,1,-1,1,16,35,1,0,-1,0:51:57@19/4/2015,220829970 
0,-2,-2,-6,-4,-10,-4,-2,-1,0:51:57@19/4/2015,220829986 
0,-1,-3,-3,-5,-25,-2,-1,-1,0:51:58@19/4/2015,220830002 
0,-2,1,4,-10,-14,-1,-1,-2,0:51:58@19/4/2015,220830020 
0,-1,-2,-2,2,-7,-2,-1,-2,0:51:58@19/4/2015,220830040 
0,-1,-1,-2,-8,-14,0,-1,-1,0:51:58@19/4/2015,220830061 
0,-1,1,0,-14,10,2,0,-1,0:51:58@19/4/2015,220830082 
0,1,0,-1,5,4,-2,-1,0,0:51:58@19/4/2015,220830103 
0,1,-1,1,4,18,1,0,0,0:51:58@19/4/2015,220830124 
0,1,-2,0,16,-8,0,-2,0,0:51:58@19/4/2015,220830145 
0,-1,-1,-1,-10,-4,-4,0,-3,0:51:58@19/4/2015,220830154 
0,-3,-2,-5,-6,-4,0,-1,-2,0:51:58@19/4/2015,220830163 
0,-2,-2,-3,-13,-11,-3,-1,-2,0:51:58@19/4/2015,220830173 
0,-3,-2,-2,-3,2,0,-2,-1,0:51:58@19/4/2015,220830183 
0,0,-1,0,-6,-6,-3,0,-1,0:51:58@19/4/2015,220830193 
0,0,-5,-6,-7,-5,-3,-2,-1,0:51:58@19/4/2015,220830204 
0,-2,1,2,-7,3,2,-1,-1,0:51:58@19/4/2015,220830215 
0,0,-2,-3,-3,-3,-1,-2,-4,0:51:58@19/4/2015,220830227 
0,0,-2,-3,-3,-3,-1,-2,-4,0:51:58@19/4/2015,220830239 
0,-3,-1,-3,-3,-8,-1,-3,0,0:51:58@19/4/2015,220830252 
0,-1,-1,-2,-14,-16,-4,-3,-2,0:51:58@19/4/2015,220830265 
0,-2,-3,-2,8,3,-1,-2,-1,0:51:58@19/4/2015,220830279 
0,0,-3,-5,-7,7,-1,-1,-1,0:51:58@19/4/2015,220830294 
0,0,-3,-5,-7,7,-1,-1,-1,0:51:58@19/4/2015,220830309 
0,0,-3,-2,-6,-8,-3,-3,-3,0:51:58@19/4/2015,220830324 
0,-2,-3,-3,10,-4,-1,-1,-2,0:51:58@19/4/2015,220830339 
0,0,-1,-2,-1,4,1,-1,-1,0:51:58@19/4/2015,220830355 
0,0,2,0,2,0,-1,0,0,0:51:58@19/4/2015,220830371 
0,-2,-2,-4,12,7,-2,-1,-2,0:51:58@19/4/2015,220830388 
0,1,1,2,6,-5,1,-1,0,0:51:58@19/4/2015,220830406 
0,-3,-1,-1,6,-2,-4,-1,0,0:51:58@19/4/2015,220830424 
0,-1,0,1,3,5,2,0,0,0:51:58@19/4/2015,220830442 
0,-1,0,1,10,8,-2,0,-2,0:51:58@19/4/2015,220830462 
0,-1,-5,-1,3,-3,-2,-1,-2,0:51:58@19/4/2015,220830481 
0,-2,-2,1,-6,-10,-2,-2,-1,0:51:58@19/4/2015,220830501 
0,-2,-2,1,-6,-10,-2,-2,-1,0:51:58@19/4/2015,220830510 
0,-2,-2,-5,-5,-1,-2,-2,-1,0:51:58@19/4/2015,220830519 
0,-2,0,-1,9,-5,1,-1,-2,0:51:58@19/4/2015,220830529 
0,-2,0,-1,9,-5,1,-1,-2,0:51:58@19/4/2015,220830539 
0,-1,0,-4,-13,-7,-4,-2,-2,0:51:58@19/4/2015,220830549 
0,-2,-3,-4,2,5,-3,-1,-2,0:51:58@19/4/2015,220830560 
0,-2,-3,-4,2,5,-3,-1,-2,0:51:58@19/4/2015,220830571 
0,0,0,2,-3,-9,0,-2,0,0:51:58@19/4/2015,220830583 
0,-1,1,2,-25,-8,1,-2,-2,0:51:58@19/4/2015,220830595 
0,-1,1,2,-25,-8,1,-2,-2,0:51:58@19/4/2015,220830608 
0,-2,-3,-3,-4,-10,-5,-2,-2,0:51:58@19/4/2015,220830621 
0,-2,-3,-3,-2,-2,-2,0,-3,0:51:58@19/4/2015,220830635 
0,-2,-3,-2,3,-13,-5,-2,0,0:51:58@19/4/2015,220830649 
0,1,-2,-2,-15,-7,1,1,1,0:51:58@19/4/2015,220830664 
0,-2,-2,-1,-1,-1,-2,-2,-2,0:51:58@19/4/2015,220830679 
0,-1,-2,-4,-7,-8,0,-2,-1,0:51:58@19/4/2015,220830695 
0,-2,-4,-4,-11,-11,-1,-1,-3,0:51:58@19/4/2015,220830711 
0,1,0,-1,-4,-15,-1,-2,0,0:51:58@19/4/2015,220830727 
0,-2,-2,-2,-10,-6,-1,-3,-1,0:51:58@19/4/2015,220830744 
0,0,-1,1,11,18,3,-1,0,0:51:58@19/4/2015,220830761 
0,0,2,2,13,23,2,2,-1,0:51:58@19/4/2015,220830779 
0,-2,-1,-1,-17,-14,0,-3,-2,0:51:58@19/4/2015,220830797 
0,-2,-1,-3,-2,-5,-3,-1,0,0:51:58@19/4/2015,220830816 
0,-1,-1,-3,-8,-12,-4,-4,-2,0:51:58@19/4/2015,220830835 
0,0,0,0,13,-12,0,0,0,0:51:58@19/4/2015,220830855 
0,0,0,0,13,-12,0,0,0,0:51:58@19/4/2015,220830864 
0,-1,2,-1,2,26,-2,0,-1,0:51:58@19/4/2015,220830873 
0,0,0,-1,-18,-23,-3,-3,-1,0:51:58@19/4/2015,220830882 
0,0,0,-1,-18,-23,-3,-3,-1,0:51:58@19/4/2015,220830892 
0,-3,-1,0,-1,6,-1,-2,-1,0:51:58@19/4/2015,220830902 
0,-2,-1,-3,-8,-10,-2,2,-1,0:51:58@19/4/2015,220830913 
0,-2,-1,-3,-8,-10,-2,2,-1,0:51:58@19/4/2015,220830924 
0,0,0,-1,-3,0,0,-1,0,0:51:58@19/4/2015,220830936 
0,-2,1,1,2,8,-3,-1,-2,0:51:58@19/4/2015,220830948 
0,-2,-2,-1,0,2,-5,-3,-4,0:51:58@19/4/2015,220830960 
0,-2,-1,-1,2,-7,1,-1,-1,0:51:58@19/4/2015,220830973 
0,-1,-3,-5,1,-4,-2,-1,-1,0:51:58@19/4/2015,220830987 
0,-1,-1,0,-4,-4,2,-1,0,0:51:59@19/4/2015,220831001 
0,-1,-1,0,-4,-4,2,-1,0,0:51:59@19/4/2015,220831015 
0,1,0,-2,5,0,-2,-2,-1,0:51:59@19/4/2015,220831030 
0,0,0,-1,7,1,-2,-1,-1,0:51:59@19/4/2015,220831046 
0,0,0,-2,2,1,0,-1,-2,0:51:59@19/4/2015,220831062 
0,-1,-1,-2,-5,2,-1,-2,-1,0:51:59@19/4/2015,220831078 
0,-2,-1,-2,7,-11,-4,-3,0,0:51:59@19/4/2015,220831095 
0,1,-3,-3,-4,-11,-2,0,-1,0:51:59@19/4/2015,220831112 
0,0,1,6,4,3,-1,0,-2,0:51:59@19/4/2015,220831130 
0,-2,-2,-1,1,-10,-1,-2,-1,0:51:59@19/4/2015,220831148 
0,-2,-1,1,-2,4,1,-2,-1,0:51:59@19/4/2015,220831167 
0,1,-1,1,-10,-1,2,1,-1,0:51:59@19/4/2015,220831186 
0,0,0,1,5,-7,-1,0,1,0:51:59@19/4/2015,220831206 
0,0,-1,-2,-5,-11,0,-1,-2,0:51:59@19/4/2015,220831215 
0,0,-1,-2,-5,-11,0,-1,-2,0:51:59@19/4/2015,220831224 
0,-1,0,-2,1,-4,-1,-3,-1,0:51:59@19/4/2015,220831233 
0,-2,-1,1,-9,-9,-2,-2,-2,0:51:59@19/4/2015,220831242 
0,-2,-1,1,-9,-9,-2,-2,-2,0:51:59@19/4/2015,220831252 
0,-2,-3,-4,-5,-6,-5,-2,-1,0:51:59@19/4/2015,220831263 
0,-1,-3,-2,5,0,-2,-1,1,0:51:59@19/4/2015,220831274 
0,1,1,2,1,5,0,0,1,0:51:59@19/4/2015,220831286 
0,0,-3,-4,0,-5,-4,-2,-3,0:51:59@19/4/2015,220831298 
0,-2,-4,-5,4,1,-2,-2,-3,0:51:59@19/4/2015,220831310 
0,-3,-4,-6,-19,13,1,-2,-3,0:51:59@19/4/2015,220831323 
0,-2,-1,0,2,4,0,-2,-1,0:51:59@19/4/2015,220831337 
0,-2,-1,-1,-9,-13,-2,0,-1,0:51:59@19/4/2015,220831351 
0,-1,1,2,19,-1,-1,0,0,0:51:59@19/4/2015,220831365 
0,-3,-2,-5,2,-9,-1,-1,-1,0:51:59@19/4/2015,220831380 
0,1,-1,-1,-10,-13,-2,-2,-2,0:51:59@19/4/2015,220831396 
0,-2,-4,-2,2,2,-1,-1,-1,0:51:59@19/4/2015,220831412 
0,0,0,-2,-6,-12,-3,-2,-1,0:51:59@19/4/2015,220831429 
0,-4,-1,-2,-14,-4,-3,-2,-3,0:51:59@19/4/2015,220831446 
0,-2,0,-2,-13,4,-4,-4,0,0:51:59@19/4/2015,220831463 
0,-1,-1,-1,2,-16,-5,-1,-1,0:51:59@19/4/2015,220831481 
0,0,0,0,-1,15,0,-1,-1,0:51:59@19/4/2015,220831499 
0,-2,0,-1,-4,-16,0,0,-3,0:51:59@19/4/2015,220831518 
0,-1,-1,5,29,21,-2,-1,0,0:51:59@19/4/2015,220831538 
0,-1,-2,-5,-14,-21,-4,-3,-2,0:51:59@19/4/2015,220831558 
0,0,-2,0,-4,13,1,0,-2,0:51:59@19/4/2015,220831567 
0,0,-1,-4,1,-1,-1,0,-1,0:51:59@19/4/2015,220831576 
0,-1,-1,1,5,-9,-1,0,-1,0:51:59@19/4/2015,220831585 
0,-2,-2,-1,-11,-10,-3,-2,1,0:51:59@19/4/2015,220831595 
0,0,-2,-2,-5,6,0,-1,-1,0:51:59@19/4/2015,220831605 
0,-1,-1,-2,7,8,-2,-1,-1,0:51:59@19/4/2015,220831616 
0,-1,0,-2,-11,-15,-3,-1,-2,0:51:59@19/4/2015,220831627 
0,1,3,2,-5,-2,-1,0,-1,0:51:59@19/4/2015,220831638 
0,-2,0,1,1,2,1,-1,0,0:51:59@19/4/2015,220831650 
0,-1,-1,-1,1,12,1,-1,-1,0:51:59@19/4/2015,220831662 
0,-1,-1,-4,-4,-22,-4,-3,-3,0:51:59@19/4/2015,220831675 
0,0,0,0,-7,-3,0,-1,0,0:51:59@19/4/2015,220831688 
0,0,-3,-3,-14,-12,-2,-1,-1,0:51:59@19/4/2015,220831702 
0,-1,-2,-2,-2,8,2,-2,-2,0:51:59@19/4/2015,220831717 
0,-2,-2,-2,8,4,2,-1,-3,0:51:59@19/4/2015,220831732 
0,1,0,0,4,20,-1,0,-2,0:51:59@19/4/2015,220831747 
0,-1,0,-1,-5,-12,0,-2,0,0:51:59@19/4/2015,220831763 
0,-1,-1,-1,-9,-5,-1,0,-1,0:51:59@19/4/2015,220831780 
0,-1,-3,-1,4,-8,0,0,-1,0:51:59@19/4/2015,220831797 
0,0,-2,-1,-7,8,2,0,-1,0:51:59@19/4/2015,220831814 
0,0,-1,0,1,-2,1,-1,0,0:51:59@19/4/2015,220831832 
0,1,0,1,12,-4,0,0,1,0:51:59@19/4/2015,220831851 
0,-3,0,-2,5,11,-4,-1,-2,0:51:59@19/4/2015,220831870 
0,2,2,3,15,-1,1,0,-1,0:51:59@19/4/2015,220831889 
0,-2,-4,-4,-5,-2,-3,-3,-1,0:51:59@19/4/2015,220831909 
0,0,-2,-1,-13,-30,-4,-1,-3,0:51:59@19/4/2015,220831918 
0,-2,-2,-3,-8,-12,0,-2,1,0:51:59@19/4/2015,220831927 
0,-2,-2,-3,-8,-12,0,-2,1,0:51:59@19/4/2015,220831936 
0,-1,1,0,-16,-11,0,1,-1,0:51:59@19/4/2015,220831946 
0,-2,0,-1,7,1,-7,-2,-2,0:51:59@19/4/2015,220831956 
0,-2,0,-1,7,1,-7,-2,-2,0:51:59@19/4/2015,220831967 
0,-1,-1,0,-16,-1,2,1,-1,0:51:59@19/4/2015,220831978 
0,-2,-2,-3,1,-25,-5,-4,-3,0:51:59@19/4/2015,220831990 
0,-2,0,3,21,22,-1,0,1,0:52:0@19/4/2015,220832002 
0,-1,-3,-7,-1,19,-3,-4,-4,0:52:0@19/4/2015,220832015 
0,1,3,4,1,7,2,1,1,0:52:0@19/4/2015,220832030 
0,-2,-4,2,-29,3,1,-3,-2,0:52:0@19/4/2015,220832046 
0,0,1,5,-6,-16,0,2,2,0:52:0@19/4/2015,220832062 
0,0,-1,-3,-13,-23,-3,-1,-1,0:52:0@19/4/2015,220832079 
0,-6,-7,-8,10,9,-3,-4,-4,0:52:0@19/4/2015,220832096 
0,4,5,6,4,22,7,4,4,0:52:0@19/4/2015,220832112 
0,-2,-1,-1,-11,-6,-3,0,-2,0:52:0@19/4/2015,220832129 
0,0,2,0,-1,9,1,-1,-2,0:52:0@19/4/2015,220832146 
0,-5,-4,-9,-3,-22,-3,-10,-1,0:52:0@19/4/2015,220832164 
0,0,-2,0,-4,-19,-3,-1,-1,0:52:0@19/4/2015,220832182 
0,-3,-5,-6,-17,-11,-1,-3,-2,0:52:0@19/4/2015,220832200 
0,-1,-2,-4,-7,1,-4,1,-3,0:52:0@19/4/2015,220832219 
0,0,1,-1,-14,-23,-1,-8,-1,0:52:0@19/4/2015,220832238 
0,-1,3,6,16,27,5,-3,0,0:52:0@19/4/2015,220832258 
0,-4,-6,-10,-12,-8,-5,-1,-4,0:52:0@19/4/2015,220832278 
0,0,3,3,1,-7,0,-5,2,0:52:0@19/4/2015,220832287 
0,0,3,3,1,-7,0,-5,2,0:52:0@19/4/2015,220832296 
0,2,2,3,31,15,0,-4,0,0:52:0@19/4/2015,220832305 
0,4,-1,0,3,5,-2,-3,-4,0:52:0@19/4/2015,220832315 
0,4,-1,0,3,5,-2,-3,-4,0:52:0@19/4/2015,220832325 
0,2,2,2,7,8,1,18,9,0:52:0@19/4/2015,220832336 
0,-2,1,2,16,-8,2,2,1,0:52:0@19/4/2015,220832347 
0,1,0,5,17,17,0,-3,0,0:52:0@19/4/2015,220832358 
0,-4,-6,-9,-12,-8,-7,3,-2,0:52:0@19/4/2015,220832370 
0,-4,0,-4,-18,-6,0,-8,-4,0:52:0@19/4/2015,220832383 
0,-3,-3,-3,19,-2,2,1,-3,0:52:0@19/4/2015,220832396 
0,3,5,7,0,5,6,5,1,0:52:0@19/4/2015,220832410 
0,-2,0,3,4,9,0,-17,-6,0:52:0@19/4/2015,220832424 
0,-1,1,3,-3,13,1,1,-4,0:52:0@19/4/2015,220832441 
0,-10,-6,-6,-9,-1,-8,16,-7,0:52:0@19/4/2015,220832456 
0,1,1,-1,-6,-9,-1,-3,25,0:52:0@19/4/2015,220832472 
0,-7,-3,-4,-2,-7,-1,-6,-25,0:52:0@19/4/2015,220832488 
0,4,2,6,-2,12,6,-1,9,0:52:0@19/4/2015,220832505 
0,2,0,-1,5,-2,4,41,65,0:52:0@19/4/2015,220832522 
0,-7,-2,-3,-3,-8,-12,-58,-74,0:52:0@19/4/2015,220832540 
0,22,3,4,6,12,8,65,124,0:52:0@19/4/2015,220832558 
0,-14,-1,-1,4,0,2,-40,38,0:52:0@19/4/2015,220832576 
0,-24,-2,0,1,34,-11,-2,-83,0:52:0@19/4/2015,220832595 
0,-6,-2,0,2,-10,11,27,62,0:52:0@19/4/2015,220832614 
0,-15,-2,-3,1,-1,6,92,2,0:52:0@19/4/2015,220832634 
0,-10,0,-2,0,-1,-7,38,44,0:52:0@19/4/2015,220832643 
0,-9,-3,-4,-9,-70,-6,7,-60,0:52:0@19/4/2015,220832652 
0,-9,-8,-11,-10,7,-21,14,-109,0:52:0@19/4/2015,220832661 
0,43,-1,2,0,19,-7,3,12,0:52:0@19/4/2015,220832671 
0,-1,2,-1,-6,-78,1,-39,5,0:52:0@19/4/2015,220832681 
0,4,0,-5,-5,3,18,-3,17,0:52:0@19/4/2015,220832692 
0,-55,-6,-3,-3,-3,-29,-67,-57,0:52:0@19/4/2015,220832703 
0,24,7,5,16,104,43,69,30,0:52:0@19/4/2015,220832715 
0,-5,-4,-4,-5,-14,0,-31,-56,0:52:0@19/4/2015,220832728 
0,-53,1,4,0,-35,12,-39,36,0:52:0@19/4/2015,220832741 
0,-21,-6,-6,-15,-82,-30,38,-5,0:52:0@19/4/2015,220832754 
0,27,0,2,12,127,36,15,-13,0:52:0@19/4/2015,220832768 
0,89,9,8,12,81,22,-14,-30,0:52:0@19/4/2015,220832782 
3,13,-3,7,7,1,-26,-8,-59,0:52:0@19/4/2015,220832798 
3,1,2,0,0,11,-9,52,55,0:52:0@19/4/2015,220832814 
3,29,5,-2,-3,-70,15,77,-7,0:52:0@19/4/2015,220832830 
3,101,1,-1,3,6,32,62,125,0:52:0@19/4/2015,220832847 
3,-29,-7,-2,-5,-12,-18,-21,-77,0:52:0@19/4/2015,220832864 
3,-35,-3,-4,1,-14,-16,8,-37,0:52:0@19/4/2015,220832881 
3,60,-6,-7,-18,-88,-20,64,34,0:52:0@19/4/2015,220832899 
3,-15,7,2,-1,-59,-5,-38,16,0:52:0@19/4/2015,220832918 
3,-35,-3,-2,-2,10,8,-42,-121,0:52:0@19/4/2015,220832937 
3,-18,2,0,2,76,3,19,52,0:52:0@19/4/2015,220832956 
3,6,-3,-2,-4,-13,-4,-9,-32,0:52:0@19/4/2015,220832976 
3,-11,3,-2,2,20,4,-7,17,0:52:0@19/4/2015,220832997 
3,-11,3,-2,2,20,4,-7,17,0:52:1@19/4/2015,220833006 
3,-22,-1,-2,-3,-3,2,11,15,0:52:1@19/4/2015,220833015 
3,-3,2,1,-3,9,-3,-30,66,0:52:1@19/4/2015,220833024 
3,-3,2,1,-3,9,-3,-30,66,0:52:1@19/4/2015,220833034 
3,-20,-4,-1,2,-26,-7,22,16,0:52:1@19/4/2015,220833044 
3,21,9,6,10,28,12,8,-118,0:52:1@19/4/2015,220833055 
3,16,3,1,-3,-10,1,9,32,0:52:1@19/4/2015,220833066 
3,-4,0,-5,-4,-19,-10,-8,-22,0:52:1@19/4/2015,220833078 
3,14,-4,-3,-6,3,-3,7,16,0:52:1@19/4/2015,220833090 
3,-3,-4,-3,-4,7,-4,-11,17,0:52:1@19/4/2015,220833103 
3,6,0,-2,3,14,1,-8,-18,0:52:1@19/4/2015,220833116 
3,6,0,-2,3,14,1,-8,-18,0:52:1@19/4/2015,220833129 
3,-3,0,-4,-1,-1,-1,0,-60,0:52:1@19/4/2015,220833144 
3,8,-1,-2,-1,-4,-2,-2,-13,0:52:1@19/4/2015,220833159 
3,-1,-3,-2,-1,3,0,-2,-9,0:52:1@19/4/2015,220833174 
3,-1,-3,-2,-1,3,0,-2,-9,0:52:1@19/4/2015,220833189 
3,-3,-1,2,0,0,2,2,12,0:52:1@19/4/2015,220833205 
3,0,-1,2,-1,-1,0,-1,-11,0:52:1@19/4/2015,220833222 
3,-3,0,-3,-3,-1,-2,-3,-15,0:52:1@19/4/2015,220833240 
0,-2,-1,-2,-4,-1,1,-1,-4,0:52:1@19/4/2015,220833258 
0,1,0,5,7,3,0,-1,3,0:52:1@19/4/2015,220833276 
0,-1,1,0,-1,3,-2,0,1,0:52:1@19/4/2015,220833294 
0,-2,-2,0,5,-3,-2,-1,3,0:52:1@19/4/2015,220833314 
0,1,0,-11,-18,-9,-2,1,3,0:52:1@19/4/2015,220833333 
0,-1,-6,18,37,49,12,2,3,0:52:1@19/4/2015,220833353 
0,-1,0,2,5,-2,-2,-1,-1,0:52:1@19/4/2015,220833362 
0,-3,-1,-18,-32,-34,-3,-3,-1,0:52:1@19/4/2015,220833371 
0,0,-1,11,1,4,9,3,-2,0:52:1@19/4/2015,220833380 
0,-2,-1,-12,-33,48,0,0,-1,0:52:1@19/4/2015,220833390 
0,-5,-4,-10,-4,-3,-3,-5,-3,0:52:1@19/4/2015,220833400 
0,0,3,12,27,-31,-11,-2,0,0:52:1@19/4/2015,220833411 
0,1,1,-7,-13,9,8,2,2,0:52:1@19/4/2015,220833422 
0,-2,-2,-6,-21,18,5,-1,0,0:52:1@19/4/2015,220833434 
0,-1,-3,0,34,2,-7,-2,-2,0:52:1@19/4/2015,220833446 
0,-3,-6,-32,-52,16,0,-2,-3,0:52:1@19/4/2015,220833473 
0,2,9,21,39,24,4,3,1,0:52:1@19/4/2015,220833490 
0,-3,-8,-19,-15,-27,-2,-4,-3,0:52:1@19/4/2015,220833504 
0,-3,-8,-19,-15,-27,-2,-4,-3,0:52:1@19/4/2015,220833518 
0,-4,-12,-22,17,-53,-14,-8,-5,0:52:1@19/4/2015,220833533 
0,-3,-8,-10,-11,-19,-1,-5,-4,0:52:1@19/4/2015,220833548 
0,-10,-17,-29,25,-81,-22,-11,-9,0:52:1@19/4/2015,220833564 
0,1,7,20,101,86,0,0,-1,0:52:1@19/4/2015,220833580 
0,7,16,26,75,77,23,14,6,0:52:1@19/4/2015,220833596 
0,4,11,32,93,89,24,3,2,0:52:1@19/4/2015,220833613 
0,-10,-14,-6,-9,-15,-16,-13,-8,0:52:1@19/4/2015,220833631 
0,4,14,4,-73,-88,-15,1,3,0:52:1@19/4/2015,220833649 
0,7,9,21,-128,-84,17,10,5,0:52:1@19/4/2015,220833668 
0,-1,9,10,-28,-19,-16,-1,2,0:52:1@19/4/2015,220833688 
0,-5,-3,13,116,0,-28,-10,-6,0:52:1@19/4/2015,220833708 
0,4,6,34,-128,-56,2,5,2,0:52:1@19/4/2015,220833728 
0,3,4,-32,80,2,7,6,4,0:52:1@19/4/2015,220833737 
0,3,4,-32,80,2,7,6,4,0:52:1@19/4/2015,220833746 
0,6,16,48,-58,-31,-14,3,5,0:52:1@19/4/2015,220833755 
0,-3,0,3,68,21,14,0,-3,0:52:1@19/4/2015,220833765 
0,-7,-15,11,68,-27,-15,-9,-6,0:52:1@19/4/2015,220833775 
0,-12,-23,-43,92,22,-19,-10,-8,0:52:1@19/4/2015,220833786 
0,-10,-17,-13,45,105,9,-5,-8,0:52:1@19/4/2015,220833797 
0,-10,-17,-13,45,105,9,-5,-8,0:52:1@19/4/2015,220833809 
0,5,8,-1,-74,-48,-12,2,3,0:52:1@19/4/2015,220833822 
0,7,19,39,23,-31,-2,4,3,0:52:1@19/4/2015,220833835 
0,5,1,-19,30,-47,8,5,4,0:52:1@19/4/2015,220833848 
0,12,17,-16,5,14,12,9,10,0:52:1@19/4/2015,220833862 
0,3,2,11,-60,-16,22,6,3,0:52:1@19/4/2015,220833877 
0,-7,-19,-52,51,-59,-11,-6,-6,0:52:1@19/4/2015,220833892 
0,-4,6,17,102,29,15,2,-2,0:52:1@19/4/2015,220833907 
0,0,6,14,-92,-7,-1,0,0,0:52:1@19/4/2015,220833923 
0,-7,-8,-7,25,-29,-30,-7,-8,0:52:1@19/4/2015,220833939 
0,-2,-4,-8,-12,-32,-12,-13,-2,0:52:1@19/4/2015,220833956 
0,-6,-15,-44,-36,29,-7,-3,-6,0:52:1@19/4/2015,220833973 
0,7,14,37,-10,11,29,4,6,0:52:1@19/4/2015,220833991 
4,-2,-2,-13,-18,37,5,1,-2,0:52:2@19/4/2015,220834010 
4,-8,-12,-13,38,-41,-26,-12,-6,0:52:2@19/4/2015,220834031 
4,-3,-2,7,21,-2,-5,0,-4,0:52:2@19/4/2015,220834054 
4,2,5,7,2,-4,4,1,0,0:52:2@19/4/2015,220834077 
4,2,-1,-5,-22,4,7,2,1,0:52:2@19/4/2015,220834099 
4,2,-1,-5,-22,4,7,2,1,0:52:2@19/4/2015,220834108 
4,-1,-2,-8,1,5,1,-1,0,0:52:2@19/4/2015,220834118 
4,-3,-1,-5,-4,-6,-1,-2,-1,0:52:2@19/4/2015,220834128 
4,1,2,0,-16,10,4,0,0,0:52:2@19/4/2015,220834139 
4,-1,0,-4,11,5,-2,-1,0,0:52:2@19/4/2015,220834150 
4,-1,-3,-5,-7,-3,-1,-2,0,0:52:2@19/4/2015,220834161 
4,-1,-3,-5,-7,-3,-1,-2,0,0:52:2@19/4/2015,220834172 
4,-5,-8,-17,-18,-14,-6,-6,-4,0:52:2@19/4/2015,220834184 
4,-2,-1,1,14,-5,-3,0,-1,0:52:2@19/4/2015,220834196 
4,-3,-6,-5,-21,-13,-5,-3,-4,0:52:2@19/4/2015,220834209 
4,-1,0,6,-5,-1,-3,0,0,0:52:2@19/4/2015,220834222 
4,-1,0,-1,-2,-15,-7,-1,-4,0:52:2@19/4/2015,220834236 
4,-1,2,8,6,-2,-2,0,-1,0:52:2@19/4/2015,220834250 
4,0,2,0,6,9,-2,-1,-1,0:52:2@19/4/2015,220834265 
4,1,-1,-4,2,4,0,-1,1,0:52:2@19/4/2015,220834280 
0,-1,-1,2,2,-28,-4,-1,-1,0:52:2@19/4/2015,220834296 
0,-2,-2,-9,-3,8,0,-1,1,0:52:2@19/4/2015,220834313 
0,-2,0,-3,0,19,4,-2,-3,0:52:2@19/4/2015,220834330 
0,-1,0,0,-7,6,-3,-1,-1,0:52:2@19/4/2015,220834347 
0,2,-1,-2,3,-8,-2,-1,-1,0:52:2@19/4/2015,220834364 
0,-2,-1,-1,3,12,0,-2,-3,0:52:2@19/4/2015,220834382 
0,-1,-1,-1,-1,-5,-2,-1,3,0:52:2@19/4/2015,220834400 
0,3,4,6,16,15,14,52,4,0:52:2@19/4/2015,220834419 
0,1,0,2,23,75,11,54,14,0:52:2@19/4/2015,220834438 
0,-2,1,0,15,-54,-9,-52,-7,0:52:2@19/4/2015,220834458 
0,-2,1,0,15,-54,-9,-52,-7,0:52:2@19/4/2015,220834467 
0,-4,-5,-14,-24,45,-10,-47,-11,0:52:2@19/4/2015,220834490 
0,1,2,4,-14,-21,10,-26,-2,0:52:2@19/4/2015,220834507 
0,2,5,9,12,3,-16,25,9,0:52:2@19/4/2015,220834517 
0,2,5,9,12,3,-16,25,9,0:52:2@19/4/2015,220834527 
0,-6,-8,-6,-29,32,-12,-32,-12,0:52:2@19/4/2015,220834538 
0,3,2,2,-28,-46,23,-4,16,0:52:2@19/4/2015,220834549 
0,-8,-4,-5,12,-97,-26,-18,-9,0:52:2@19/4/2015,220834561 
0,1,1,3,37,63,11,13,-16,0:52:2@19/4/2015,220834573 
0,-1,1,4,3,-25,5,38,8,0:52:2@19/4/2015,220834586 
0,6,2,0,3,101,42,77,8,0:52:2@19/4/2015,220834599 
0,6,2,0,3,101,42,77,8,0:52:2@19/4/2015,220834613 
0,6,-1,2,4,66,26,94,39,0:52:2@19/4/2015,220834628 
0,5,7,21,40,-2,18,40,17,0:52:2@19/4/2015,220834643 
0,6,15,23,27,51,6,-10,0,0:52:2@19/4/2015,220834659 
0,-3,-1,-7,-55,-54,5,-46,-3,0:52:2@19/4/2015,220834675 
0,-7,-2,1,-12,80,-16,-54,-14,0:52:2@19/4/2015,220834691 
0,-11,-19,-26,-29,-128,-50,-78,-28,0:52:2@19/4/2015,220834708 
0,-8,-7,-4,19,7,-2,23,-11,0:52:2@19/4/2015,220834726 
0,1,10,19,49,-15,-16,52,2,0:52:2@19/4/2015,220834744 
0,-3,-5,-6,67,81,28,-19,3,0:52:2@19/4/2015,220834763 
0,-3,-7,-9,85,127,62,1,-3,0:52:2@19/4/2015,220834782 
0,-1,-1,-3,33,-9,17,12,1,0:52:2@19/4/2015,220834801 
2,8,4,1,-37,-45,-9,84,24,0:52:2@19/4/2015,220834821 
2,-4,-6,-6,-7,21,-3,-22,-5,0:52:2@19/4/2015,220834841 
2,-4,-6,-6,-7,21,-3,-22,-5,0:52:2@19/4/2015,220834850 
2,-1,-4,-13,-25,-43,-4,-26,-6,0:52:2@19/4/2015,220834859 
2,-5,-4,0,29,49,15,-8,-4,0:52:2@19/4/2015,220834868 
2,-3,-6,-8,5,-35,-3,-7,-3,0:52:2@19/4/2015,220834878 
2,1,2,-4,-8,-6,-8,-41,-9,0:52:2@19/4/2015,220834888 
2,0,0,-3,-12,-30,-12,-9,-1,0:52:2@19/4/2015,220834899 
2,0,0,-3,-12,-30,-12,-9,-1,0:52:2@19/4/2015,220834910 
2,-1,-1,-3,-12,-19,-5,-20,-7,0:52:2@19/4/2015,220834922 
2,-1,-1,-3,-12,-19,-5,-20,-7,0:52:2@19/4/2015,220834934 
2,-3,-4,1,5,0,-6,1,-2,0:52:2@19/4/2015,220834946 
2,3,6,14,48,20,5,-11,-1,0:52:2@19/4/2015,220834959 
2,3,6,14,48,20,5,-11,-1,0:52:2@19/4/2015,220834973 
2,-2,-2,-7,-32,2,-8,5,-5,0:52:2@19/4/2015,220834987 
2,2,2,2,14,23,10,65,14,0:52:3@19/4/2015,220835001 
2,-2,-2,1,3,-5,-1,-19,-4,0:52:3@19/4/2015,220835016 
2,0,0,-5,-7,-15,-5,-3,1,0:52:3@19/4/2015,220835032 
2,-3,-6,-13,-11,-4,-1,-10,-1,0:52:3@19/4/2015,220835048 
2,1,1,-7,-27,-11,2,0,2,0:52:3@19/4/2015,220835064 
2,-4,-6,-13,-16,-6,-3,-5,-3,0:52:3@19/4/2015,220835081 
2,-1,3,6,-9,-12,-3,-8,-2,0:52:3@19/4/2015,220835099 
2,-2,-4,-6,0,-20,7,-3,-1,0:52:3@19/4/2015,220835117 
2,-2,-2,3,2,11,-3,-7,-2,0:52:3@19/4/2015,220835136 
2,-2,-3,1,7,22,-2,-4,-1,0:52:3@19/4/2015,220835155 
0,0,2,-1,-7,-5,-4,-3,-3,0:52:3@19/4/2015,220835175 
0,-2,1,-1,8,20,-28,-10,-2,0:52:3@19/4/2015,220835195 
0,-2,1,-1,8,20,-28,-10,-2,0:52:3@19/4/2015,220835204 
0,-1,1,0,-1,31,40,10,0,0:52:3@19/4/2015,220835213 
0,-1,-2,0,3,-1,-9,-4,0,0:52:3@19/4/2015,220835222 
0,-1,0,2,-5,-9,-8,-6,-2,0:52:3@19/4/2015,220835232 
0,-1,0,2,-5,-9,-8,-6,-2,0:52:3@19/4/2015,220835242 
0,1,2,4,-8,-22,12,2,1,0:52:3@19/4/2015,220835254 
0,-2,-1,2,2,-15,-14,-4,-1,0:52:3@19/4/2015,220835265 
0,0,-3,0,-17,36,2,2,-1,0:52:3@19/4/2015,220835277 
0,2,2,5,11,-9,18,6,-1,0:52:3@19/4/2015,220835289 
0,0,1,-1,-2,-18,1,1,0,0:52:3@19/4/2015,220835302 
0,-3,-3,-3,-1,-11,-11,-6,-3,0:52:3@19/4/2015,220835315 
0,-2,-1,-3,0,-7,8,5,0,0:52:3@19/4/2015,220835329 
0,0,0,-3,-2,5,42,-5,-4,0:52:3@19/4/2015,220835343 
0,3,3,4,-1,8,8,12,14,0:52:3@19/4/2015,220835357 
0,6,4,6,14,86,59,13,1,0:52:3@19/4/2015,220835373 
0,-3,-2,-3,-22,-8,-6,7,-1,0:52:3@19/4/2015,220835388 
0,10,8,8,10,4,40,8,7,0:52:3@19/4/2015,220835404 
0,1,0,5,8,-16,-13,4,-4,0:52:3@19/4/2015,220835420 
0,7,5,-3,0,-2,-28,-2,10,0:52:3@19/4/2015,220835437 
0,4,0,-5,-4,-10,18,-17,-3,0:52:3@19/4/2015,220835454 
0,3,4,9,9,11,-16,-3,19,0:52:3@19/4/2015,220835472 
0,6,1,8,4,18,-16,-21,17,0:52:3@19/4/2015,220835490 
0,-7,-6,-12,-21,3,36,2,-23,0:52:3@19/4/2015,220835509 
0,1,-4,-18,-15,-1,-68,11,18,0:52:3@19/4/2015,220835529 
0,9,8,-14,15,9,83,35,9,0:52:3@19/4/2015,220835549 
0,7,8,16,-3,-49,-5,-7,-1,0:52:3@19/4/2015,220835558 
0,7,6,33,28,24,-19,8,26,0:52:3@19/4/2015,220835567 
0,6,-1,0,11,-21,16,-3,21,0:52:3@19/4/2015,220835576 
0,-18,-14,-17,-32,-47,-92,-78,-28,0:52:3@19/4/2015,220835586 
0,-18,-14,-17,-32,-47,-92,-78,-28,0:52:3@19/4/2015,220835596 
0,-7,0,28,31,18,-71,32,-8,0:52:3@19/4/2015,220835607 
5,-19,-3,-11,35,-60,19,11,-52,0:52:3@19/4/2015,220835619 
5,-23,-8,-28,-43,-77,-76,-56,-82,0:52:3@19/4/2015,220835631 
5,23,15,11,-8,31,91,22,2,0:52:3@19/4/2015,220835644 
5,-14,-27,-41,-1,-28,-53,-39,-52,0:52:3@19/4/2015,220835657 
5,-6,-22,-28,23,96,36,17,16,0:52:3@19/4/2015,220835671 
5,-8,-2,-26,-54,18,92,66,-13,0:52:3@19/4/2015,220835685 
5,-24,-14,-49,-44,-41,88,1,-48,0:52:3@19/4/2015,220835700 
5,-3,-7,-13,-30,10,73,34,-3,0:52:3@19/4/2015,220835715 
5,14,11,13,2,-39,-57,-12,-21,0:52:3@19/4/2015,220835731 
5,-9,-15,5,23,-67,-88,3,9,0:52:3@19/4/2015,220835747 
5,-18,-14,20,27,-19,51,-43,-18,0:52:3@19/4/2015,220835764 
5,2,-6,20,-5,-36,7,-39,44,0:52:3@19/4/2015,220835781 
5,-11,-5,6,-1,19,15,5,-34,0:52:3@19/4/2015,220835799 
5,8,5,-28,11,-56,-12,-4,21,0:52:3@19/4/2015,220835817 
5,4,12,8,-20,16,16,43,3,0:52:3@19/4/2015,220835835 
5,2,1,-10,-18,26,-14,24,27,0:52:3@19/4/2015,220835854 
5,10,3,-6,-57,-60,-49,-47,-8,0:52:3@19/4/2015,220835873 
5,-20,6,3,-11,21,-40,1,-4,0:52:3@19/4/2015,220835893 
5,3,-8,-7,-12,-24,-66,-20,-16,0:52:3@19/4/2015,220835914 
5,3,-8,-7,-12,-24,-66,-20,-16,0:52:3@19/4/2015,220835923 
5,-7,1,2,-24,-6,-32,-7,27,0:52:3@19/4/2015,220835932 
5,3,0,2,10,-7,-5,0,43,0:52:3@19/4/2015,220835941 
5,17,1,-11,-12,-12,-21,8,21,0:52:3@19/4/2015,220835951 
5,-65,-4,-7,2,-7,-1,6,-18,0:52:3@19/4/2015,220835961 
5,-4,1,-5,-13,-2,-2,-11,1,0:52:3@19/4/2015,220835972 
5,34,2,6,6,-3,5,11,-4,0:52:3@19/4/2015,220835983 
5,-7,-1,2,-1,-10,6,5,-1,0:52:3@19/4/2015,220835995 
5,-11,-5,5,-7,-8,-4,-10,-8,0:52:4@19/4/2015,220836008 
5,-2,-5,-2,9,18,4,1,2,0:52:4@19/4/2015,220836023 
5,-6,-4,-9,-23,-46,-19,-7,-8,0:52:4@19/4/2015,220836037 
5,-4,6,9,16,50,15,2,2,0:52:4@19/4/2015,220836053 
5,-7,-7,-19,-48,-78,-22,-15,-6,0:52:4@19/4/2015,220836069 
5,-3,-1,-6,-15,-47,-11,-6,-3,0:52:4@19/4/2015,220836085 
5,-3,0,2,43,76,13,-12,-4,0:52:4@19/4/2015,220836101 
5,-1,2,3,-14,18,2,14,0,0:52:4@19/4/2015,220836118 
5,-2,-7,-12,-12,-5,2,17,2,0:52:4@19/4/2015,220836136 
5,-2,-2,-6,-15,19,-6,-28,-4,0:52:4@19/4/2015,220836153 
5,3,4,15,76,46,19,9,5,0:52:4@19/4/2015,220836170 
5,2,0,6,-10,53,5,-15,-5,0:52:4@19/4/2015,220836188 
5,-9,-11,-27,-39,-52,-16,-1,-5,0:52:4@19/4/2015,220836206 
5,2,4,15,34,39,7,-7,1,0:52:4@19/4/2015,220836225 
5,-2,-4,-6,-10,-15,-9,-3,-4,0:52:4@19/4/2015,220836245 
5,-2,-2,-6,13,32,1,27,2,0:52:4@19/4/2015,220836265 
5,0,0,-1,14,-46,3,12,1,0:52:4@19/4/2015,220836285 
5,-1,-4,-6,54,60,4,56,14,0:52:4@19/4/2015,220836294 
5,-3,-5,-3,19,-17,-6,-12,-4,0:52:4@19/4/2015,220836303 
5,-3,-5,-3,19,-17,-6,-12,-4,0:52:4@19/4/2015,220836312 
5,-2,-1,2,-26,-4,-2,-38,-9,0:52:4@19/4/2015,220836322 
5,-2,-1,-2,-3,-1,1,41,3,0:52:4@19/4/2015,220836332 
5,-3,0,0,-12,-1,0,11,-7,0:52:4@19/4/2015,220836343 
5,28,4,0,4,-13,4,18,10,0:52:4@19/4/2015,220836354 
5,-11,2,10,32,53,8,-58,-4,0:52:4@19/4/2015,220836366 
5,-19,-2,0,9,13,-3,-46,-37,0:52:4@19/4/2015,220836378 
5,-6,-1,-1,-2,-6,0,-81,-55,0:52:4@19/4/2015,220836391 
5,-15,-3,-5,-6,10,-1,17,-47,0:52:4@19/4/2015,220836405 
5,4,11,11,-1,9,-1,26,63,0:52:4@19/4/2015,220836419 
5,-32,-7,-3,-5,-30,-13,8,14,0:52:4@19/4/2015,220836433 
5,25,-2,-5,-8,13,-11,3,-51,0:52:4@19/4/2015,220836448 
5,-37,-1,-1,3,54,-3,-37,35,0:52:4@19/4/2015,220836463 
5,-16,-7,-11,-12,-17,-5,-45,-11,0:52:4@19/4/2015,220836479 
5,-33,-2,-3,-1,10,-23,87,-24,0:52:4@19/4/2015,220836495 
5,98,-1,-9,-12,-30,22,12,-8,0:52:4@19/4/2015,220836512 
5,38,3,4,-1,-42,5,22,22,0:52:4@19/4/2015,220836530 
5,39,1,-1,-10,-118,-16,-18,40,0:52:4@19/4/2015,220836548 
5,43,9,4,3,-6,1,-21,75,0:52:4@19/4/2015,220836567 
5,26,12,12,21,-3,32,-64,49,0:52:4@19/4/2015,220836586 
5,54,6,1,-2,38,17,35,3,0:52:4@19/4/2015,220836605 
5,35,-9,-7,-8,-5,-9,-12,39,0:52:4@19/4/2015,220836625 
5,-34,-14,-17,-16,-48,-7,48,30,0:52:4@19/4/2015,220836645 
5,105,-10,-12,-15,-20,-25,0,39,0:52:4@19/4/2015,220836654 
5,105,-10,-12,-15,-20,-25,0,39,0:52:4@19/4/2015,220836663 
5,-74,-19,-23,-23,-19,-38,14,-22,0:52:4@19/4/2015,220836672 
5,40,-4,2,-4,-117,5,-7,-13,0:52:4@19/4/2015,220836682 
5,-5,20,4,4,28,-8,24,-54,0:52:4@19/4/2015,220836692 
5,12,1,9,11,30,14,-1,-45,0:52:4@19/4/2015,220836703 
5,-42,0,-1,0,59,9,-3,-55,0:52:4@19/4/2015,220836714 
5,-42,0,-1,0,59,9,-3,-55,0:52:4@19/4/2015,220836726 
5,-7,-6,-3,-4,-21,-15,35,49,0:52:4@19/4/2015,220836739 
5,91,6,-2,-2,-4,4,-12,114,0:52:4@19/4/2015,220836752 
5,24,6,2,3,-3,-13,-20,-39,0:52:4@19/4/2015,220836766 
5,10,-3,-3,-2,-13,-9,5,36,0:52:4@19/4/2015,220836781 
5,-34,0,1,5,4,1,-3,93,0:52:4@19/4/2015,220836795 
5,-3,4,2,-1,-11,-3,4,18,0:52:4@19/4/2015,220836810 
5,50,0,-3,0,9,-2,10,111,0:52:4@19/4/2015,220836825 
5,34,-1,5,6,8,-2,1,27,0:52:4@19/4/2015,220836841 
5,-8,0,-4,-4,5,-2,-1,4,0:52:4@19/4/2015,220836857 
5,-1,-1,0,1,-2,5,0,1,0:52:4@19/4/2015,220836874 
5,-35,-6,-2,1,0,2,-1,9,0:52:4@19/4/2015,220836891 
5,-18,0,-2,0,1,0,1,5,0:52:4@19/4/2015,220836909 
5,4,-1,-2,-8,4,0,0,-4,0:52:4@19/4/2015,220836927 
5,-4,-1,2,9,-1,-2,0,2,0:52:4@19/4/2015,220836946 
5,-4,-3,-1,-12,-1,0,-2,-1,0:52:4@19/4/2015,220836965 
0,0,-2,4,13,2,1,0,3,0:52:4@19/4/2015,220836986 
0,-3,-4,-9,4,-12,-10,-2,0,0:52:5@19/4/2015,220837007 
0,-2,-4,10,-15,8,-8,-3,-4,0:52:5@19/4/2015,220837016 
0,-2,-4,10,-15,8,-8,-3,-4,0:52:5@19/4/2015,220837025 
0,-1,-1,18,47,-28,-6,-2,-3,0:52:5@19/4/2015,220837034 
0,-3,-1,-3,-9,57,6,-2,0,0:52:5@19/4/2015,220837044 
0,-3,-1,-3,-9,57,6,-2,0,0:52:5@19/4/2015,220837054 
0,-1,3,14,-1,-82,-13,0,0,0:52:5@19/4/2015,220837065 
0,0,-2,-24,-13,-19,-5,-1,-1,0:52:5@19/4/2015,220837076 
0,0,-2,-24,-13,-19,-5,-1,-1,0:52:5@19/4/2015,220837088 
0,-2,-1,-2,65,16,9,1,0,0:52:5@19/4/2015,220837100 
0,2,0,-14,-39,-16,-1,3,1,0:52:5@19/4/2015,220837113 
0,-1,2,4,36,15,10,1,1,0:52:5@19/4/2015,220837126 
0,-7,-7,-11,-53,-38,-17,-12,-8,0:52:5@19/4/2015,220837140 
0,2,6,16,-64,-66,-6,1,0,0:52:5@19/4/2015,220837154 
0,-1,-2,0,61,50,-8,-3,-3,0:52:5@19/4/2015,220837169 
0,1,4,5,-9,23,-1,1,-1,0:52:5@19/4/2015,220837184 
0,-3,-3,-19,-20,-11,-9,-4,-1,0:52:5@19/4/2015,220837200 
0,-1,2,-3,-29,-4,-3,-1,-3,0:52:5@19/4/2015,220837216 
0,-10,-11,-7,-37,-10,-29,-13,-9,0:52:5@19/4/2015,220837232 
0,-1,4,25,-13,40,12,1,1,0:52:5@19/4/2015,220837249 
0,-6,-23,-70,-18,7,-2,-6,-4,0:52:5@19/4/2015,220837266 
0,-9,-16,-13,-76,-45,-24,-11,-7,0:52:5@19/4/2015,220837285 
0,0,3,24,-13,105,-3,0,-2,0:52:5@19/4/2015,220837304 
0,11,21,2,17,86,46,22,13,0:52:5@19/4/2015,220837323 
0,-17,-53,-99,-120,-74,5,-5,-10,0:52:5@19/4/2015,220837343 
0,-16,-26,-23,-25,92,10,-21,-16,0:52:5@19/4/2015,220837363 
0,1,-15,-99,-98,-99,30,13,3,0:52:5@19/4/2015,220837372 
0,1,-15,-99,-98,-99,30,13,3,0:52:5@19/4/2015,220837381 
0,2,8,85,51,110,51,6,0,0:52:5@19/4/2015,220837390 
0,1,6,-13,-95,-128,-7,-4,0,0:52:5@19/4/2015,220837400 
0,-5,-7,20,-28,-39,-38,-18,-7,0:52:5@19/4/2015,220837411 
0,-7,-7,1,21,-97,-64,-14,-8,0:52:5@19/4/2015,220837422 
0,-6,-5,-28,-87,-54,6,4,-1,0:52:5@19/4/2015,220837433 
0,-4,-3,2,127,28,-36,-12,-4,0:52:5@19/4/2015,220837445 
0,1,8,48,77,27,-25,-3,1,0:52:5@19/4/2015,220837458 
0,1,8,48,77,27,-25,-3,1,0:52:5@19/4/2015,220837471 
0,-6,-4,35,93,-77,4,2,-6,0:52:5@19/4/2015,220837485 
0,-19,-35,-128,62,-76,-64,-24,-15,0:52:5@19/4/2015,220837499 
0,12,10,-14,48,74,39,21,13,0:52:5@19/4/2015,220837514 
0,-3,8,-26,-107,-46,-34,-14,-5,0:52:5@19/4/2015,220837529 
0,-3,-13,-5,-30,54,-6,-1,-2,0:52:5@19/4/2015,220837545 
0,-14,-22,-52,-52,-82,-66,-23,-16,0:52:5@19/4/2015,220837561 
0,9,30,103,104,100,70,15,6,0:52:5@19/4/2015,220837578 
0,23,34,71,-45,-27,20,11,9,0:52:5@19/4/2015,220837595 
0,-17,-25,-35,72,-52,-27,-15,-12,0:52:5@19/4/2015,220837613 
0,0,1,3,-70,83,7,-2,-3,0:52:5@19/4/2015,220837631 
0,-8,-27,-126,-104,4,-13,-4,-4,0:52:5@19/4/2015,220837650 
4,-13,-21,-39,90,-96,-24,-7,-5,0:52:5@19/4/2015,220837669 
4,-13,-21,-39,90,-96,-24,-7,-5,0:52:5@19/4/2015,220837689 
4,-4,-9,-20,-18,-72,-19,20,-1,0:52:5@19/4/2015,220837710 
4,3,3,-6,-21,-52,5,-10,4,0:52:5@19/4/2015,220837731 
4,-8,1,31,12,-90,-8,-55,-7,0:52:5@19/4/2015,220837740 
4,1,1,-4,3,-59,-3,4,4,0:52:5@19/4/2015,220837749 
4,0,2,4,1,2,2,-10,-3,0:52:5@19/4/2015,220837758 
4,0,2,4,1,2,2,-10,-3,0:52:5@19/4/2015,220837768 
4,7,15,27,-14,-7,6,26,7,0:52:5@19/4/2015,220837779 
4,7,15,27,-14,-7,6,26,7,0:52:5@19/4/2015,220837790 
4,-1,2,8,3,37,-4,9,-4,0:52:5@19/4/2015,220837801 
4,6,8,20,-29,67,21,3,6,0:52:5@19/4/2015,220837813 
4,-4,-2,-1,-16,80,-5,-23,-7,0:52:5@19/4/2015,220837825 
4,-1,-4,-1,-3,-75,-6,10,10,0:52:5@19/4/2015,220837838 
4,-3,-4,-3,21,-128,-3,-5,-8,0:52:5@19/4/2015,220837851 
4,-2,-5,-5,2,-60,-6,-19,-6,0:52:5@19/4/2015,220837865 
4,-3,-7,-12,-7,-67,-11,-3,-3,0:52:5@19/4/2015,220837879 
4,8,7,10,-33,25,12,7,4,0:52:5@19/4/2015,220837894 
4,3,2,-4,-8,45,2,3,2,0:52:5@19/4/2015,220837909 
4,2,2,4,2,83,9,12,3,0:52:5@19/4/2015,220837925 
4,-3,-4,-1,15,36,0,-4,1,0:52:5@19/4/2015,220837941 
4,-2,-1,1,-7,7,-3,-4,-3,0:52:5@19/4/2015,220837958 
4,-1,1,0,1,13,-2,3,-4,0:52:5@19/4/2015,220837975 
4,-1,-1,0,3,-43,-5,-7,-5,0:52:5@19/4/2015,220837993 
4,-2,-5,-8,-6,-33,-7,-1,0,0:52:6@19/4/2015,220838012 
4,-1,2,-2,0,-39,-4,-3,-1,0:52:6@19/4/2015,220838033 
4,-2,-1,1,-1,-10,-2,-3,2,0:52:6@19/4/2015,220838055 
4,-1,-1,-1,-3,-4,-3,-3,-1,0:52:6@19/4/2015,220838077 
4,0,-4,-3,0,-6,-1,5,3,0:52:6@19/4/2015,220838097 
4,1,1,1,10,0,6,7,2,0:52:6@19/4/2015,220838106 
4,-1,1,0,8,27,0,-2,-2,0:52:6@19/4/2015,220838115 
4,-1,-1,-2,-25,9,7,-2,0,0:52:6@19/4/2015,220838125 
4,-1,0,-2,-9,-24,0,1,-1,0:52:6@19/4/2015,220838135 
4,2,0,6,20,13,1,38,7,0:52:6@19/4/2015,220838145 
4,-2,0,-2,-7,0,-1,0,-2,0:52:6@19/4/2015,220838156 
4,-1,-2,-2,-2,-6,-2,-12,-2,0:52:6@19/4/2015,220838167 
4,1,1,5,13,17,5,8,1,0:52:6@19/4/2015,220838179 
4,1,1,5,13,17,5,8,1,0:52:6@19/4/2015,220838191 
4,-3,-2,-4,1,2,-6,-7,-5,0:52:6@19/4/2015,220838204 
4,1,0,0,-11,-5,5,10,4,0:52:6@19/4/2015,220838217 
4,0,-1,3,2,19,-3,8,2,0:52:6@19/4/2015,220838231 
4,-3,-3,-6,-19,-7,-3,-17,-4,0:52:6@19/4/2015,220838245 
4,-1,-1,1,-18,-12,-3,-16,-2,0:52:6@19/4/2015,220838259 
4,-5,-5,-5,1,-5,-6,9,-6,0:52:6@19/4/2015,220838274 
4,-6,-1,-1,4,4,0,-9,0,0:52:6@19/4/2015,220838291 
4,0,0,1,5,0,1,-6,-6,0:52:6@19/4/2015,220838307 
4,-2,0,-1,-7,-20,-3,7,2,0:52:6@19/4/2015,220838324 
4,-2,-5,-6,11,3,-3,-5,-6,0:52:6@19/4/2015,220838341 
4,-2,-3,-5,-11,-16,0,-7,-4,0:52:6@19/4/2015,220838358 
4,2,-1,0,11,17,-2,-19,-5,0:52:6@19/4/2015,220838376 
4,1,-1,-3,-4,41,7,-8,-9,0:52:6@19/4/2015,220838394 
4,-1,0,2,-12,-25,-2,0,-1,0:52:6@19/4/2015,220838413 
4,2,-1,-1,12,-16,-1,-3,-1,0:52:6@19/4/2015,220838432 
4,-3,-5,-4,6,-18,1,8,-6,0:52:6@19/4/2015,220838452 
4,0,2,7,28,19,4,0,-5,0:52:6@19/4/2015,220838461 
4,0,2,7,28,19,4,0,-5,0:52:6@19/4/2015,220838470 
4,0,1,-2,3,16,3,-2,1,0:52:6@19/4/2015,220838479 
4,-2,-3,-6,-17,-10,-3,-1,3,0:52:6@19/4/2015,220838489 
4,0,0,-1,-2,-10,6,-5,3,0:52:6@19/4/2015,220838499 
4,0,0,-1,-2,-10,6,-5,3,0:52:6@19/4/2015,220838509 
4,-3,-4,-1,-2,18,-6,-15,-7,0:52:6@19/4/2015,220838520 
4,-3,-2,-2,-4,-11,-3,-24,-6,0:52:6@19/4/2015,220838532 
4,-2,-1,-2,-7,2,-7,-7,0,0:52:6@19/4/2015,220838544 
4,0,2,0,1,5,1,0,-2,0:52:6@19/4/2015,220838560 
4,0,2,0,1,5,1,0,-2,0:52:6@19/4/2015,220838573 
4,-1,-3,-3,-9,-21,-1,0,1,0:52:6@19/4/2015,220838587 
4,1,1,-3,-4,12,-4,-2,0,0:52:6@19/4/2015,220838601 
4,-1,1,2,-1,-4,4,3,0,0:52:6@19/4/2015,220838616 
4,-2,0,-2,-6,-6,-3,-3,-2,0:52:6@19/4/2015,220838631 
4,-2,-3,-2,1,-20,-7,-3,-4,0:52:6@19/4/2015,220838647 
4,-2,-2,1,-7,18,2,4,-2,0:52:6@19/4/2015,220838663 
4,-1,-3,1,-1,-17,0,2,2,0:52:6@19/4/2015,220838679 
4,1,0,-1,-2,-53,-6,-2,-1,0:52:6@19/4/2015,220838696 
4,0,-1,1,21,57,8,-5,0,0:52:6@19/4/2015,220838714 
4,1,0,0,-2,-12,2,2,0,0:52:6@19/4/2015,220838732 
4,-1,-2,-3,-4,9,1,-2,-2,0:52:6@19/4/2015,220838751 
4,-1,0,2,5,-10,-7,-5,-3,0:52:6@19/4/2015,220838770 
4,1,0,-2,-7,-35,-2,3,1,0:52:6@19/4/2015,220838790 
4,-1,-4,-2,-13,-29,-10,-12,-2,0:52:6@19/4/2015,220838810 
4,1,2,2,7,10,-5,0,-1,0:52:6@19/4/2015,220838819 
4,0,2,2,11,32,7,2,1,0:52:6@19/4/2015,220838828 
4,-2,-3,-2,-9,-3,-3,-2,-1,0:52:6@19/4/2015,220838837 
4,1,4,2,-3,-12,0,1,0,0:52:6@19/4/2015,220838847 
4,2,-5,-7,-3,-5,-2,0,-2,0:52:6@19/4/2015,220838857 
4,-6,-3,-3,0,3,3,4,-2,0:52:6@19/4/2015,220838867 
4,1,-3,-5,-1,10,6,3,3,0:52:6@19/4/2015,220838878 
4,0,-1,4,5,18,-1,-6,-3,0:52:6@19/4/2015,220838890 
4,0,-1,4,5,18,-1,-6,-3,0:52:6@19/4/2015,220838902 
4,-1,0,0,-7,-16,1,0,0,0:52:6@19/4/2015,220838915 
4,2,3,2,-3,-12,1,-2,0,0:52:6@19/4/2015,220838928 
4,-1,-2,-2,-3,8,14,1,-2,0:52:6@19/4/2015,220838942 
4,-2,2,1,1,5,12,3,1,0:52:6@19/4/2015,220838956 
4,-1,-1,-2,-3,-12,-2,-2,0,0:52:6@19/4/2015,220838970 
4,-1,1,-2,-7,5,-1,-3,-2,0:52:6@19/4/2015,220838985 
4,0,-1,-1,-10,-37,-2,-1,-1,0:52:7@19/4/2015,220839000 
4,-3,-2,-3,9,14,0,0,0,0:52:7@19/4/2015,220839017 
4,-2,1,7,3,-13,-3,-3,-3,0:52:7@19/4/2015,220839034 
4,0,-2,-1,4,-16,6,-1,-1,0:52:7@19/4/2015,220839051 
4,-3,-4,-6,-5,-15,-8,-1,-4,0:52:7@19/4/2015,220839069 
4,0,-1,-12,14,-14,-6,1,0,0:52:7@19/4/2015,220839087 
4,-1,-6,-15,-15,5,-4,-2,-1,0:52:7@19/4/2015,220839105 
4,0,3,6,3,10,-2,1,-1,0:52:7@19/4/2015,220839124 
4,-4,0,5,-13,4,7,0,-3,0:52:7@19/4/2015,220839143 
4,-3,-5,3,10,25,-2,-3,-4,0:52:7@19/4/2015,220839163 
4,-3,-5,3,10,25,-2,-3,-4,0:52:7@19/4/2015,220839172 
4,2,2,-6,-3,23,-7,-2,1,0:52:7@19/4/2015,220839181 
4,2,2,-6,-3,23,-7,-2,1,0:52:7@19/4/2015,220839190 
4,-3,2,17,20,38,5,-1,0,0:52:7@19/4/2015,220839200 
4,-2,-3,7,-11,13,-6,-2,-1,0:52:7@19/4/2015,220839210 
4,-4,-7,-5,-22,-29,-6,-3,-2,0:52:7@19/4/2015,220839221 
4,2,8,6,10,36,6,0,1,0:52:7@19/4/2015,220839232 
4,0,6,12,-10,8,11,1,3,0:52:7@19/4/2015,220839243 
4,-1,-1,-8,20,-12,-14,-2,-2,0:52:7@19/4/2015,220839255 
4,-1,-1,-8,20,-12,-14,-2,-2,0:52:7@19/4/2015,220839267 
4,1,1,-7,43,-3,-1,3,2,0:52:7@19/4/2015,220839280 
4,0,3,-4,37,1,-17,-4,-2,0:52:7@19/4/2015,220839294 
4,-6,-8,-13,-1,-66,-4,0,-4,0:52:7@19/4/2015,220839309 
4,2,8,8,18,6,16,15,6,0:52:7@19/4/2015,220839324 
4,-4,-9,-8,5,-13,-4,22,1,0:52:7@19/4/2015,220839339 
4,3,5,-10,-30,14,3,-7,-3,0:52:7@19/4/2015,220839354 
4,-5,-12,-4,2,-4,-6,-1,-2,0:52:7@19/4/2015,220839370 
4,0,2,-3,21,27,15,0,1,0:52:7@19/4/2015,220839386 
4,6,5,-3,-11,-54,-9,-2,1,0:52:7@19/4/2015,220839403 
4,-5,-4,-1,-21,0,2,4,-5,0:52:7@19/4/2015,220839421 
4,-2,-1,2,-4,-1,-3,0,-3,0:52:7@19/4/2015,220839439 
4,-3,-8,-1,43,25,1,13,3,0:52:7@19/4/2015,220839457 
4,-11,-8,1,44,30,-1,-9,-6,0:52:7@19/4/2015,220839476 
4,-1,-3,10,54,44,-1,-2,-1,0:52:7@19/4/2015,220839495 
4,0,3,2,14,69,-3,12,4,0:52:7@19/4/2015,220839515 
4,0,3,2,14,69,-3,12,4,0:52:7@19/4/2015,220839524 
4,3,1,4,-17,-35,-12,4,4,0:52:7@19/4/2015,220839533 
4,2,1,-4,-8,-5,1,-6,-3,0:52:7@19/4/2015,220839543 
4,2,1,-4,-8,-5,1,-6,-3,0:52:7@19/4/2015,220839553 
4,1,4,1,32,0,-15,-20,-6,0:52:7@19/4/2015,220839563 
4,0,-9,-23,-33,-4,23,2,0,0:52:7@19/4/2015,220839577 
4,-4,-3,-2,-1,-15,-28,3,0,0:52:7@19/4/2015,220839588 
4,-2,4,13,-7,-13,-23,-14,-6,0:52:7@19/4/2015,220839600 
4,-3,-4,-7,-21,-16,-11,13,-1,0:52:7@19/4/2015,220839612 
4,4,12,13,3,22,-4,10,0,0:52:7@19/4/2015,220839625 
4,-8,-6,-3,-30,-9,-27,-28,-4,0:52:7@19/4/2015,220839638 
4,-8,-6,-3,-30,-9,-27,-28,-4,0:52:7@19/4/2015,220839651 
4,-2,1,0,-28,-25,-18,-30,-12,0:52:7@19/4/2015,220839665 
4,4,-3,-31,15,-12,-21,1,7,0:52:7@19/4/2015,220839680 
4,0,2,15,21,-2,-13,-10,-3,0:52:7@19/4/2015,220839695 
4,1,-5,-3,-10,2,-4,1,0,0:52:7@19/4/2015,220839710 
4,1,4,18,2,16,-7,-8,-1,0:52:7@19/4/2015,220839726 
4,1,-2,9,29,-7,25,4,7,0:52:7@19/4/2015,220839743 
4,-3,-4,-3,-39,-18,-10,2,5,0:52:7@19/4/2015,220839760 
4,-1,2,2,-7,-15,-7,6,-1,0:52:7@19/4/2015,220839778 
4,1,0,-3,-10,-3,-12,-6,-4,0:52:7@19/4/2015,220839796 
4,2,13,30,3,5,14,10,3,0:52:7@19/4/2015,220839815 
4,2,13,30,3,5,14,10,3,0:52:7@19/4/2015,220839834 
4,-5,-10,-20,-2,-6,5,-1,1,0:52:7@19/4/2015,220839854 
4,-4,-4,-4,1,19,-2,4,2,0:52:7@19/4/2015,220839874 
4,-4,-4,-4,1,19,-2,4,2,0:52:7@19/4/2015,220839883 
4,0,0,-1,-22,-6,3,39,2,0:52:7@19/4/2015,220839892 
4,0,0,-1,-22,-6,3,39,2,0:52:7@19/4/2015,220839901 
4,-3,-4,-4,0,0,-5,-13,-1,0:52:7@19/4/2015,220839911 
4,-4,-4,0,-2,-14,-5,-2,-3,0:52:7@19/4/2015,220839921 
4,2,2,3,-8,11,-5,-8,2,0:52:7@19/4/2015,220839932 
4,-4,-5,-5,1,-8,-9,-10,-4,0:52:7@19/4/2015,220839943 
4,3,4,-2,-10,-18,1,1,2,0:52:7@19/4/2015,220839955 
4,3,4,-2,-10,-18,1,1,2,0:52:7@19/4/2015,220839967 
4,-1,-1,-3,-35,-82,-3,-2,-3,0:52:7@19/4/2015,220839979 
4,-3,-5,-9,-9,-1,-3,-14,-4,0:52:7@19/4/2015,220839992 
4,-2,-2,-4,13,35,-3,-2,-4,0:52:8@19/4/2015,220840006 
4,1,1,11,51,29,3,-2,-1,0:52:8@19/4/2015,220840021 
4,-1,-1,2,3,15,9,1,0,0:52:8@19/4/2015,220840038 
4,1,0,-14,11,-19,13,6,0,0:52:8@19/4/2015,220840056 
4,-4,-1,7,-13,-41,-5,-5,-4,0:52:8@19/4/2015,220840073 
4,0,0,-1,5,24,-2,-4,-2,0:52:8@19/4/2015,220840091 
4,-1,-2,-6,-29,18,-5,-1,-2,0:52:8@19/4/2015,220840108 
4,-1,-2,2,5,2,-2,1,0,0:52:8@19/4/2015,220840125 
4,-1,-5,-12,-8,-57,-11,-2,-1,0:52:8@19/4/2015,220840144 
4,1,-1,-5,-6,-3,-2,-1,-2,0:52:8@19/4/2015,220840162 
4,-7,-16,-30,-11,-45,-13,-5,-2,0:52:8@19/4/2015,220840181 
4,-6,0,9,-6,-35,-8,-1,-2,0:52:8@19/4/2015,220840200 
4,1,2,5,10,-5,9,2,0,0:52:8@19/4/2015,220840219 
4,-2,-2,0,3,13,-2,-1,-1,0:52:8@19/4/2015,220840239 
4,-2,-1,1,11,-8,5,20,-1,0:52:8@19/4/2015,220840247 
4,0,0,3,1,-29,-3,8,2,0:52:8@19/4/2015,220840256 
4,0,0,3,1,-29,-3,8,2,0:52:8@19/4/2015,220840265 
4,-2,-1,-6,-6,-5,-2,3,-3,0:52:8@19/4/2015,220840275 
4,-1,-3,-6,-8,-16,-5,-6,1,0:52:8@19/4/2015,220840285 
4,-1,-3,-6,-8,-16,-5,-6,1,0:52:8@19/4/2015,220840295 
4,-2,-4,-4,5,18,-1,-6,-2,0:52:8@19/4/2015,220840307 
4,1,3,2,23,28,0,0,1,0:52:8@19/4/2015,220840319 
4,-1,-1,-4,3,-13,-3,-13,-2,0:52:8@19/4/2015,220840332 
4,2,10,23,59,61,8,15,5,0:52:8@19/4/2015,220840345 
4,2,10,23,59,61,8,15,5,0:52:8@19/4/2015,220840358 
4,-4,-5,-6,-81,-58,-8,-12,-5,0:52:8@19/4/2015,220840372 
4,3,7,15,3,9,2,-5,-2,0:52:8@19/4/2015,220840386 
4,-1,-1,-2,-22,-3,-2,0,-3,0:52:8@19/4/2015,220840401 
4,-1,-5,-4,30,20,4,-9,-2,0:52:8@19/4/2015,220840416 
4,-2,-1,-5,-25,-32,-3,-17,-4,0:52:8@19/4/2015,220840431 
4,-3,-5,-9,4,-14,-29,-33,-3,0:52:8@19/4/2015,220840447 
4,-2,-5,0,40,9,3,3,-2,0:52:8@19/4/2015,220840463 
4,-1,-3,-2,-6,1,2,-4,-1,0:52:8@19/4/2015,220840480 
2,0,-4,-14,-9,10,-12,-8,1,0:52:8@19/4/2015,220840497 
2,-1,1,-5,14,11,-1,7,-1,0:52:8@19/4/2015,220840515 
2,-6,-4,-4,17,-8,-7,-7,-4,0:52:8@19/4/2015,220840534 
2,6,6,17,127,47,11,40,3,0:52:8@19/4/2015,220840553 
2,-28,-1,-1,-1,27,38,1,-6,0:52:8@19/4/2015,220840573 
2,16,-6,-16,-28,-6,1,7,0,0:52:8@19/4/2015,220840595 
2,1,3,4,-5,-26,-5,9,-1,0:52:8@19/4/2015,220840612 
2,1,-7,-9,-10,-23,-24,-10,6,0:52:8@19/4/2015,220840621 
2,4,-3,-3,-45,-33,-25,6,4,0:52:8@19/4/2015,220840631 
2,11,8,10,-2,11,7,12,9,0:52:8@19/4/2015,220840641 
2,-15,-5,-9,-54,-62,-6,-17,0,0:52:8@19/4/2015,220840651 
2,5,-1,1,39,22,4,-1,-29,0:52:8@19/4/2015,220840662 
2,12,-1,-6,27,-4,26,-46,-15,0:52:8@19/4/2015,220840674 
2,12,-1,-6,27,-4,26,-46,-15,0:52:8@19/4/2015,220840686 
2,6,-5,-3,1,2,23,9,8,0:52:8@19/4/2015,220840699 
2,-6,-3,-5,-13,9,5,-4,-3,0:52:8@19/4/2015,220840712 
2,-6,2,2,-6,-9,-5,17,-2,0:52:8@19/4/2015,220840726 
2,12,2,2,16,18,17,-10,5,0:52:8@19/4/2015,220840740 
2,3,3,8,62,13,6,-3,-17,0:52:8@19/4/2015,220840754 
2,-25,-7,-7,-18,-10,-1,2,2,0:52:8@19/4/2015,220840769 
2,9,-1,2,11,5,-28,7,6,0:52:8@19/4/2015,220840784 
2,4,-2,-6,-5,-12,57,46,14,0:52:8@19/4/2015,220840800 
2,-7,-3,1,0,8,-27,9,14,0:52:8@19/4/2015,220840817 
2,-6,0,-7,0,4,-5,3,-4,0:52:8@19/4/2015,220840834 
2,6,-3,-11,-29,0,-6,2,2,0:52:8@19/4/2015,220840852 
2,8,3,2,6,8,1,2,9,0:52:8@19/4/2015,220840870 
2,-9,-3,0,-11,-1,1,12,-3,0:52:8@19/4/2015,220840888 
2,-5,1,-2,2,0,-5,-10,-23,0:52:8@19/4/2015,220840907 
2,-3,-1,-4,1,-9,-5,-6,-1,0:52:8@19/4/2015,220840926 
2,-2,-2,0,-12,25,1,16,-2,0:52:8@19/4/2015,220840946 
2,-5,-2,-4,-23,-20,-10,-12,-6,0:52:8@19/4/2015,220840966 
2,-4,0,-6,-12,7,-1,-12,-3,0:52:8@19/4/2015,220840975 
2,-4,0,-6,-12,7,-1,-12,-3,0:52:8@19/4/2015,220840984 
2,1,1,5,-11,-16,-5,-5,-7,0:52:8@19/4/2015,220840993 
2,-1,-2,5,15,-4,2,3,0,0:52:9@19/4/2015,220841003 
2,0,-3,-18,-20,-12,-5,-6,-5,0:52:9@19/4/2015,220841013 
2,-1,-4,-4,6,-2,-2,-6,2,0:52:9@19/4/2015,220841024 
2,2,5,7,7,-13,-8,-6,-2,0:52:9@19/4/2015,220841035 
2,2,5,7,7,-13,-8,-6,-2,0:52:9@19/4/2015,220841046 
2,0,-1,-2,9,7,2,-12,-6,0:52:9@19/4/2015,220841058 
2,0,-1,-2,9,7,2,-12,-6,0:52:9@19/4/2015,220841070 
2,-2,1,-1,-13,3,2,-1,3,0:52:9@19/4/2015,220841083 
2,-3,-3,-3,2,4,-9,12,-2,0:52:9@19/4/2015,220841096 
2,2,0,2,0,-24,-14,3,-3,0:52:9@19/4/2015,220841110 
2,-5,-2,1,4,-24,-8,-11,4,0:52:9@19/4/2015,220841125 
2,-3,-5,-19,-2,10,-4,-9,-7,0:52:9@19/4/2015,220841140 
2,-2,-2,14,10,10,-8,0,0,0:52:9@19/4/2015,220841155 
2,-3,0,3,-4,7,-10,-8,-6,0:52:9@19/4/2015,220841171 
2,-1,-3,4,-11,-10,2,7,3,0:52:9@19/4/2015,220841187 
2,-1,-1,-4,0,-17,-7,0,0,0:52:9@19/4/2015,220841204 
2,2,-1,-7,-26,-13,-2,-5,-5,0:52:9@19/4/2015,220841221 
2,-2,-3,-3,-6,-11,4,-2,-2,0:52:9@19/4/2015,220841239 
2,0,0,-1,0,2,-7,4,1,0:52:9@19/4/2015,220841257 
2,-3,-2,1,10,-3,-9,2,1,0:52:9@19/4/2015,220841276 
2,-2,-6,-7,-6,-1,1,4,-1,0:52:9@19/4/2015,220841295 
2,0,-1,-2,-2,-5,-6,-4,-3,0:52:9@19/4/2015,220841315 
2,-2,-2,-4,1,3,4,2,-2,0:52:9@19/4/2015,220841324 
2,-1,0,-3,-19,4,-1,-2,0,0:52:9@19/4/2015,220841333 
2,-2,-6,-5,-21,0,-1,2,1,0:52:9@19/4/2015,220841342 
2,-2,-4,-8,-1,5,-4,-2,-16,0:52:9@19/4/2015,220841351 
2,3,3,-1,3,-13,-12,5,5,0:52:9@19/4/2015,220841361 
2,-1,-1,2,4,-9,0,-1,1,0:52:9@19/4/2015,220841372 
2,0,-1,2,4,7,1,-4,-1,0:52:9@19/4/2015,220841383 
2,-1,1,8,0,-2,1,2,-2,0:52:9@19/4/2015,220841395 
2,-5,-3,-4,11,4,0,-5,-1,0:52:9@19/4/2015,220841407 
2,-2,-3,-6,4,-3,7,-4,-5,0:52:9@19/4/2015,220841420 
2,-3,-9,-5,1,-4,-3,-1,3,0:52:9@19/4/2015,220841433 
2,1,3,10,-12,-6,-3,1,-1,0:52:9@19/4/2015,220841446 
2,1,-2,4,1,-7,-1,4,3,0:52:9@19/4/2015,220841460 
2,5,3,5,0,-13,-10,4,5,0:52:9@19/4/2015,220841475 
2,-2,0,-1,-17,-10,-15,-6,-1,0:52:9@19/4/2015,220841490 
2,-2,-1,7,7,-9,4,-4,-4,0:52:9@19/4/2015,220841506 
2,-1,0,-13,1,2,3,-1,0,0:52:9@19/4/2015,220841522 
2,-3,-4,-2,-1,-3,-4,-2,-4,0:52:9@19/4/2015,220841538 
2,-4,-7,-5,-15,7,6,-3,-3,0:52:9@19/4/2015,220841555 
2,-5,-5,-3,-9,0,4,-14,-4,0:52:9@19/4/2015,220841572 
2,3,7,2,9,-13,-4,-9,-1,0:52:9@19/4/2015,220841590 
2,-2,-1,2,22,-4,5,-4,0,0:52:9@19/4/2015,220841612 
2,0,-3,-3,-11,1,-4,-9,-1,0:52:9@19/4/2015,220841631 
2,-3,0,0,-2,1,0,11,-1,0:52:9@19/4/2015,220841650 
2,0,0,1,21,-1,-2,-5,1,0:52:9@19/4/2015,220841670 
2,-2,-4,-4,4,-1,2,2,0,0:52:9@19/4/2015,220841679 
2,-1,-2,-7,-9,5,3,3,-3,0:52:9@19/4/2015,220841688 
2,-1,-2,-7,-9,5,3,3,-3,0:52:9@19/4/2015,220841697 
2,0,2,7,4,0,6,1,-2,0:52:9@19/4/2015,220841707 
2,1,-2,3,10,2,-4,-1,1,0:52:9@19/4/2015,220841717 
2,1,-2,3,10,2,-4,-1,1,0:52:9@19/4/2015,220841728 
2,-1,1,3,-7,0,2,4,3,0:52:9@19/4/2015,220841739 
2,-2,-3,5,-8,1,0,-9,-1,0:52:9@19/4/2015,220841750 
2,-3,-7,-3,-3,-2,-6,-5,11,0:52:9@19/4/2015,220841762 
2,1,0,5,7,0,-3,0,-4,0:52:9@19/4/2015,220841775 
2,-1,0,0,7,0,-2,5,-4,0:52:9@19/4/2015,220841788 
2,3,5,4,3,2,0,-2,-1,0:52:9@19/4/2015,220841801 
2,-1,2,5,-12,3,0,1,-6,0:52:9@19/4/2015,220841815 
2,1,0,3,2,-3,-4,3,1,0:52:9@19/4/2015,220841830 
2,0,0,-2,-9,-16,-6,-1,-2,0:52:9@19/4/2015,220841846 
2,-2,-4,-8,-3,-1,8,-1,-5,0:52:9@19/4/2015,220841861 
2,0,4,5,3,2,-4,-4,0,0:52:9@19/4/2015,220841877 
2,-2,-6,0,12,3,10,-4,1,0:52:9@19/4/2015,220841893 
2,-2,3,-2,-20,-1,4,-2,-3,0:52:9@19/4/2015,220841910 
2,1,-2,-8,-2,-17,-4,-4,-2,0:52:9@19/4/2015,220841927 
2,-4,-2,2,6,6,-1,-3,-3,0:52:9@19/4/2015,220841945 
2,-1,-2,-2,-6,1,-3,1,-2,0:52:9@19/4/2015,220841964 
2,1,3,5,17,11,-5,-3,-3,0:52:9@19/4/2015,220841983 
2,1,-1,3,-3,-6,-3,-1,2,0:52:10@19/4/2015,220842002 
2,-1,-1,2,30,5,2,1,0,0:52:10@19/4/2015,220842023 
2,-1,-3,-3,-1,2,-1,0,3,0:52:10@19/4/2015,220842033 
2,-4,-5,-2,-23,-10,-5,-11,-6,0:52:10@19/4/2015,220842044 
2,-1,-3,-7,8,7,-2,-11,-2,0:52:10@19/4/2015,220842055 
2,-1,-4,-4,3,6,4,-2,-2,0:52:10@19/4/2015,220842066 
2,-2,-2,-8,-28,-10,-12,-2,1,0:52:10@19/4/2015,220842078 
2,-2,-2,-8,-28,-10,-12,-2,1,0:52:10@19/4/2015,220842090 
2,-4,-2,-2,-1,-5,0,2,-19,0:52:10@19/4/2015,220842101 
2,-4,-2,-2,-1,-5,0,2,-19,0:52:10@19/4/2015,220842113 
2,1,0,-2,-2,5,2,4,2,0:52:10@19/4/2015,220842126 
2,1,1,3,28,1,5,1,5,0:52:10@19/4/2015,220842140 
2,4,1,-2,-5,9,2,2,11,0:52:10@19/4/2015,220842153 
2,-2,2,2,-12,7,-1,-10,-19,0:52:10@19/4/2015,220842168 
2,4,4,3,-7,2,3,1,13,0:52:10@19/4/2015,220842182 
2,0,-1,3,-4,-9,-5,0,0,0:52:10@19/4/2015,220842197 
2,3,1,1,1,-6,4,5,0,0:52:10@19/4/2015,220842212 
2,-1,-4,-3,-18,-4,-10,-3,0,0:52:10@19/4/2015,220842228 
2,-3,-3,-5,-11,-1,0,0,3,0:52:10@19/4/2015,220842244 
2,-2,0,-1,-2,-6,-6,9,-3,0:52:10@19/4/2015,220842260 
2,-2,0,1,20,-8,-15,4,-2,0:52:10@19/4/2015,220842277 
2,-3,2,-5,-9,-1,-1,-4,-2,0:52:10@19/4/2015,220842295 
2,-4,-7,-6,5,-3,-3,-4,0,0:52:10@19/4/2015,220842313 
2,1,0,-2,-3,0,2,-2,-2,0:52:10@19/4/2015,220842332 
2,-3,-5,-5,-2,-2,-1,1,-1,0:52:10@19/4/2015,220842351 
2,-2,-2,3,-24,-5,1,-1,-4,0:52:10@19/4/2015,220842371 
2,0,-2,1,-2,0,3,11,-1,0:52:10@19/4/2015,220842391 
2,-2,-1,-4,5,19,13,5,-13,0:52:10@19/4/2015,220842400 
2,-2,-1,-4,5,19,13,5,-13,0:52:10@19/4/2015,220842409 
2,-1,0,0,-2,6,-3,-2,-7,0:52:10@19/4/2015,220842418 
2,9,2,-6,-16,-3,-9,-4,61,0:52:10@19/4/2015,220842428 
2,-16,-5,0,6,-4,3,13,-41,0:52:10@19/4/2015,220842438 
2,11,2,5,10,-11,-5,1,5,0:52:10@19/4/2015,220842449 
2,-2,0,-2,-4,5,-1,-1,-10,0:52:10@19/4/2015,220842460 
2,-2,0,-2,-4,5,-1,-1,-10,0:52:10@19/4/2015,220842472 
2,-5,-3,3,5,-13,-12,-5,-4,0:52:10@19/4/2015,220842484 
2,1,-4,-6,0,-3,-7,-8,-10,0:52:10@19/4/2015,220842496 
2,-2,0,-2,-7,-3,3,1,0,0:52:10@19/4/2015,220842509 
2,-7,-2,1,-11,-8,-2,-6,-17,0:52:10@19/4/2015,220842523 
2,1,-2,6,2,4,-3,-3,11,0:52:10@19/4/2015,220842537 
2,3,0,0,13,0,-3,-1,4,0:52:10@19/4/2015,220842552 
2,2,-1,-11,22,-1,-5,-3,-6,0:52:10@19/4/2015,220842567 
2,-3,-2,7,-11,3,0,-2,-3,0:52:10@19/4/2015,220842583 
2,-2,1,-2,3,5,-5,-3,-3,0:52:10@19/4/2015,220842599 
2,-5,-5,-6,-17,-5,2,-1,-16,0:52:10@19/4/2015,220842616 
2,8,1,0,-6,19,2,11,20,0:52:10@19/4/2015,220842633 
2,-4,1,2,6,18,-1,-5,-10,0:52:10@19/4/2015,220842650 
2,1,-3,1,7,-16,0,0,1,0:52:10@19/4/2015,220842668 
2,-1,2,-1,4,-5,-4,-12,-1,0:52:10@19/4/2015,220842687 
2,-2,-2,-3,7,3,13,4,3,0:52:10@19/4/2015,220842706 
2,-6,-3,-3,-2,1,-7,-5,-14,0:52:10@19/4/2015,220842726 
2,2,5,9,-10,2,4,15,8,0:52:10@19/4/2015,220842746 
2,0,2,1,10,0,3,-1,-10,0:52:10@19/4/2015,220842755 
2,-8,-13,-8,0,-5,3,3,-4,0:52:10@19/4/2015,220842764 
2,-8,-13,-8,0,-5,3,3,-4,0:52:10@19/4/2015,220842773 
2,-1,5,5,-6,1,-8,-3,-12,0:52:10@19/4/2015,220842783 
2,-1,5,5,-6,1,-8,-3,-12,0:52:10@19/4/2015,220842793 
2,-1,-3,0,-3,-2,-3,-3,0,0:52:10@19/4/2015,220842803 
2,-2,0,-3,-3,-8,-3,1,-5,0:52:10@19/4/2015,220842814 
2,-1,-3,-11,-5,-9,-2,-2,-2,0:52:10@19/4/2015,220842826 
2,1,6,1,4,6,-9,-5,-1,0:52:10@19/4/2015,220842839 
2,-4,-1,-5,-2,-3,-5,-2,-3,0:52:10@19/4/2015,220842852 
2,0,2,5,6,-2,-3,-12,3,0:52:10@19/4/2015,220842865 
2,2,5,-2,-4,5,-5,-10,-3,0:52:10@19/4/2015,220842879 
2,2,5,-2,-4,5,-5,-10,-3,0:52:10@19/4/2015,220842893 
2,1,-1,1,6,4,0,6,4,0:52:10@19/4/2015,220842907 
2,-2,-5,-9,-14,-4,3,3,-4,0:52:10@19/4/2015,220842922 
2,-2,1,-10,-13,-5,1,1,0,0:52:10@19/4/2015,220842937 
2,0,-1,-4,-13,2,-3,-6,-6,0:52:10@19/4/2015,220842953 
2,3,1,3,-2,9,5,-2,-3,0:52:10@19/4/2015,220842970 
2,-2,-1,0,2,-1,-3,0,-6,0:52:10@19/4/2015,220842987 
2,-3,-2,-14,-6,3,-11,-2,-3,0:52:11@19/4/2015,220843004 
2,2,4,8,10,-5,1,-2,1,0:52:11@19/4/2015,220843022 
2,0,-1,2,-12,-5,-5,4,1,0:52:11@19/4/2015,220843040 
2,1,0,7,9,-17,-13,-4,1,0:52:11@19/4/2015,220843059 
2,-3,-1,-3,2,-6,-7,-10,-6,0:52:11@19/4/2015,220843078 
2,-2,-6,-6,-6,-16,0,18,-1,0:52:11@19/4/2015,220843098 
2,-5,-2,2,10,6,0,2,1,0:52:11@19/4/2015,220843107 
2,0,-1,5,-29,4,4,-11,-1,0:52:11@19/4/2015,220843116 
2,0,-1,5,-29,4,4,-11,-1,0:52:11@19/4/2015,220843125 
2,0,-5,-18,-1,1,-2,-6,-2,0:52:11@19/4/2015,220843135 
2,-1,1,-3,3,-18,-8,-1,-3,0:52:11@19/4/2015,220843145 
2,-1,-1,-10,8,12,-4,3,3,0:52:11@19/4/2015,220843156 
2,-1,-4,-3,-7,-12,-3,1,-1,0:52:11@19/4/2015,220843167 
2,-2,-1,-1,-1,-10,-7,-4,0,0:52:11@19/4/2015,220843179 
2,-1,1,1,-3,2,2,1,-1,0:52:11@19/4/2015,220843191 
2,-3,-1,3,1,3,0,-1,-2,0:52:11@19/4/2015,220843204 
2,-3,-1,2,17,7,-3,-9,-5,0:52:11@19/4/2015,220843217 
2,2,-3,-13,-20,10,-2,5,2,0:52:11@19/4/2015,220843230 
2,-3,-3,-12,-4,-7,5,-4,-3,0:52:11@19/4/2015,220843244 
2,0,4,6,-7,-11,-8,-2,-1,0:52:11@19/4/2015,220843258 
2,-3,-4,-7,-3,4,5,-3,-1,0:52:11@19/4/2015,220843273 
2,0,1,-3,1,0,-4,-2,-2,0:52:11@19/4/2015,220843288 
2,-4,-7,-1,6,-3,-1,4,1,0:52:11@19/4/2015,220843304 
2,-1,-1,6,7,-1,2,0,-3,0:52:11@19/4/2015,220843321 
2,0,-1,-1,-7,-1,-1,0,2,0:52:11@19/4/2015,220843338 
2,0,3,-2,-21,-7,0,-10,-3,0:52:11@19/4/2015,220843356 
2,-1,-3,0,1,-7,-1,2,-3,0:52:11@19/4/2015,220843374 
2,0,-1,2,-1,-2,-9,-13,1,0:52:11@19/4/2015,220843392 
2,0,-2,-1,0,-2,-4,2,-1,0:52:11@19/4/2015,220843411 
2,-3,-6,-2,9,-3,-1,0,-3,0:52:11@19/4/2015,220843430 
2,-2,0,1,-8,-8,-2,2,0,0:52:11@19/4/2015,220843450 
2,-1,-1,-7,-3,-4,-4,-12,-3,0:52:11@19/4/2015,220843459 
2,-3,1,5,35,0,1,7,1,0:52:11@19/4/2015,220843468 
2,-1,-5,-2,-3,-4,0,-1,-1,0:52:11@19/4/2015,220843477 
2,1,0,0,-20,2,-1,-3,-3,0:52:11@19/4/2015,220843487 
2,-1,0,-1,0,-1,0,-1,0,0:52:11@19/4/2015,220843497 
2,2,4,3,2,2,3,-4,1,0:52:11@19/4/2015,220843508 
2,2,-1,-5,3,11,4,4,9,0:52:11@19/4/2015,220843519 
2,0,1,6,12,2,-1,-2,-4,0:52:11@19/4/2015,220843531 
2,0,1,6,12,2,-1,-2,-4,0:52:11@19/4/2015,220843543 
2,-2,-5,-9,26,-1,-1,-2,-3,0:52:11@19/4/2015,220843555 
2,0,-1,0,1,-7,-2,5,-1,0:52:11@19/4/2015,220843568 
2,-1,-1,-4,-23,-7,1,-1,-1,0:52:11@19/4/2015,220843581 
2,-3,-1,2,0,-3,-3,3,-3,0:52:11@19/4/2015,220843595 
2,0,-2,0,-2,5,9,-2,-1,0:52:11@19/4/2015,220843610 
2,-2,-7,-19,-2,-6,-6,-5,-1,0:52:11@19/4/2015,220843625 
2,-2,-3,-16,-8,-5,0,0,-4,0:52:11@19/4/2015,220843640 
2,-4,1,3,-9,-5,-4,-1,-4,0:52:11@19/4/2015,220843664 
2,1,1,3,5,-2,1,-3,-2,0:52:11@19/4/2015,220843681 
2,-1,-1,-2,1,2,0,6,-1,0:52:11@19/4/2015,220843698 
2,0,-1,-6,-20,-11,-2,-2,0,0:52:11@19/4/2015,220843716 
2,-7,-6,-2,3,0,-3,-6,0,0:52:11@19/4/2015,220843734 
2,-1,-1,-1,-9,-7,-3,-3,0,0:52:11@19/4/2015,220843752 
2,-5,-9,-12,19,5,-4,-4,-5,0:52:11@19/4/2015,220843771 
2,2,1,3,-14,-6,-3,2,4,0:52:11@19/4/2015,220843790 
2,-3,-3,-21,-11,-3,4,-2,-4,0:52:11@19/4/2015,220843810 
2,-1,3,5,-21,-8,-7,-5,-1,0:52:11@19/4/2015,220843818 
2,-3,-1,5,5,5,11,6,0,0:52:11@19/4/2015,220843827 
2,-1,-3,0,10,10,-2,-4,0,0:52:11@19/4/2015,220843836 
2,-1,-3,0,10,10,-2,-4,0,0:52:11@19/4/2015,220843846 
2,4,-2,-5,44,19,2,3,3,0:52:11@19/4/2015,220843857 
2,-4,-3,-1,-6,5,-9,-7,-5,0:52:11@19/4/2015,220843868 
2,-2,2,2,-10,-5,-1,3,1,0:52:11@19/4/2015,220843879 
2,2,5,11,-14,2,5,-2,0,0:52:11@19/4/2015,220843891 
2,2,5,11,-14,2,5,-2,0,0:52:11@19/4/2015,220843903 
2,-3,-1,3,-2,-9,-1,-1,-7,0:52:11@19/4/2015,220843916 
2,-1,-1,1,16,-2,4,-2,0,0:52:11@19/4/2015,220843929 
2,-2,-1,-7,-14,-8,-4,-4,-4,0:52:11@19/4/2015,220843943 
2,-2,-1,4,-11,-20,-7,-3,-2,0:52:11@19/4/2015,220843957 
2,1,2,8,9,-7,-10,3,2,0:52:11@19/4/2015,220843971 
2,-3,-7,-11,20,-4,-7,1,5,0:52:11@19/4/2015,220843986 
2,-1,-1,-3,-11,0,-3,-3,6,0:52:12@19/4/2015,220844001 
2,1,0,7,16,7,-9,-4,1,0:52:12@19/4/2015,220844018 
2,0,0,-3,-4,-3,1,3,-1,0:52:12@19/4/2015,220844038 
2,-2,0,4,-17,-12,-7,4,0,0:52:12@19/4/2015,220844058 
2,0,-2,0,-6,2,-2,-4,-3,0:52:12@19/4/2015,220844078 
2,-2,-5,-4,-5,-5,-1,-1,-3,0:52:12@19/4/2015,220844098 
2,-3,-1,-2,-17,-13,-3,-16,-4,0:52:12@19/4/2015,220844117 
2,-3,-3,-6,3,3,0,-6,-6,0:52:12@19/4/2015,220844138 
2,-2,-5,-4,-18,-10,-5,-8,-4,0:52:12@19/4/2015,220844158 
2,-1,-1,1,5,-4,-7,-2,0,0:52:12@19/4/2015,220844178 
2,0,2,4,-1,-3,-7,-3,1,0:52:12@19/4/2015,220844187 
2,0,2,4,-1,-3,-7,-3,1,0:52:12@19/4/2015,220844196 
2,0,2,1,1,-2,-1,4,-3,0:52:12@19/4/2015,220844205 
2,0,3,-3,-3,-4,-2,1,-1,0:52:12@19/4/2015,220844215 
2,0,3,-3,-3,-4,-2,1,-1,0:52:12@19/4/2015,220844225 
2,0,-2,-4,-3,0,1,-1,-1,0:52:12@19/4/2015,220844236 
2,0,0,-7,-10,3,-7,1,0,0:52:12@19/4/2015,220844247 
2,2,4,-2,-2,-14,4,11,0,0:52:12@19/4/2015,220844259 
2,1,1,-4,-6,2,2,3,-1,0:52:12@19/4/2015,220844271 
2,-6,-6,-6,2,4,-6,-10,-2,0:52:12@19/4/2015,220844283 
2,7,3,7,-11,-10,-3,-3,2,0:52:12@19/4/2015,220844296 
2,-4,-10,-1,11,6,1,-4,-3,0:52:12@19/4/2015,220844310 
2,-2,-4,-11,-1,6,-1,0,-1,0:52:12@19/4/2015,220844324 
2,-1,-2,-2,11,2,3,-1,0,0:52:12@19/4/2015,220844339 
2,-1,2,5,5,-3,-2,-1,-1,0:52:12@19/4/2015,220844354 
2,-1,0,-3,3,0,1,1,2,0:52:12@19/4/2015,220844370 
2,-2,2,9,18,3,6,-1,-1,0:52:12@19/4/2015,220844386 
2,-2,-2,-2,-8,-5,-2,-4,-1,0:52:12@19/4/2015,220844403 
2,-1,-2,2,14,3,-5,-2,-1,0:52:12@19/4/2015,220844420 
2,1,1,-12,5,-3,-3,-1,0,0:52:12@19/4/2015,220844437 
2,-2,1,4,11,10,0,-4,0,0:52:12@19/4/2015,220844455 
2,-1,3,1,10,-3,-4,1,-3,0:52:12@19/4/2015,220844474 
2,0,2,11,34,6,1,1,1,0:52:12@19/4/2015,220844493 
2,0,2,3,-4,1,-2,-4,0,0:52:12@19/4/2015,220844512 
2,-2,-2,1,-5,-2,5,4,0,0:52:12@19/4/2015,220844532 
2,1,1,-1,-28,-5,11,-1,-1,0:52:12@19/4/2015,220844541 
2,1,-2,-6,-6,-6,-2,1,0,0:52:12@19/4/2015,220844550 
2,0,4,4,24,2,-4,-2,-2,0:52:12@19/4/2015,220844559 
2,-1,-3,-11,-10,-1,-4,-3,-1,0:52:12@19/4/2015,220844569 
2,-4,-3,3,3,-3,-3,-1,-3,0:52:12@19/4/2015,220844579 
2,1,1,4,-2,8,0,4,1,0:52:12@19/4/2015,220844590 
2,0,0,-5,-1,-10,-2,1,2,0:52:12@19/4/2015,220844601 
2,-2,-4,-2,-13,2,-1,1,-1,0:52:12@19/4/2015,220844613 
2,-2,-2,3,-19,-8,0,0,-1,0:52:12@19/4/2015,220844625 
2,0,-1,-6,-10,-2,2,11,0,0:52:12@19/4/2015,220844637 
2,-1,-2,-4,0,-3,0,-3,-2,0:52:12@19/4/2015,220844650 
2,-2,-1,1,0,4,0,-4,-2,0:52:12@19/4/2015,220844664 
2,-6,-7,-4,12,1,-4,-6,-6,0:52:12@19/4/2015,220844697 
2,1,5,7,-2,0,-2,1,1,0:52:12@19/4/2015,220844711 
2,-1,0,5,-8,-2,-1,0,0,0:52:12@19/4/2015,220844726 
2,-2,-4,-2,0,-4,-5,-6,-1,0:52:12@19/4/2015,220844741 
2,-3,-4,1,-25,-10,-5,-4,-4,0:52:12@19/4/2015,220844757 
2,-3,-1,-4,-11,-18,-5,2,-2,0:52:12@19/4/2015,220844773 
2,1,2,4,15,11,12,4,-2,0:52:12@19/4/2015,220844790 
2,-1,3,-1,2,1,-5,-2,-1,0:52:12@19/4/2015,220844807 
2,0,3,3,19,1,1,1,0,0:52:12@19/4/2015,220844825 
2,-2,0,-2,-3,-1,-5,-2,-2,0:52:12@19/4/2015,220844843 
2,0,-1,1,-14,7,3,2,-1,0:52:12@19/4/2015,220844862 
2,-2,-2,2,-4,-3,-2,1,0,0:52:12@19/4/2015,220844881 
2,-1,0,-9,2,-6,-1,-5,-2,0:52:12@19/4/2015,220844901 
2,-5,-3,-4,-7,2,-3,0,-3,0:52:12@19/4/2015,220844910 
2,-1,-1,-3,11,-2,5,4,0,0:52:12@19/4/2015,220844919 
2,-2,-3,0,26,2,-2,0,2,0:52:12@19/4/2015,220844928 
2,0,0,4,11,-2,0,-11,-1,0:52:12@19/4/2015,220844938 
2,0,0,4,11,-2,0,-11,-1,0:52:12@19/4/2015,220844948 
2,0,0,-2,-6,-10,3,1,1,0:52:12@19/4/2015,220844959 
2,-1,-3,-5,-18,-3,-10,-4,0,0:52:12@19/4/2015,220844970 
2,-2,-3,-3,-6,-9,3,-4,0,0:52:12@19/4/2015,220844982 
2,0,-1,-3,-5,-2,2,1,0,0:52:12@19/4/2015,220844994 
2,1,-2,-5,-25,3,-9,2,-4,0:52:13@19/4/2015,220845007 
2,1,3,3,4,6,0,3,0,0:52:13@19/4/2015,220845020 
2,0,-3,0,2,0,-4,-5,-1,0:52:13@19/4/2015,220845034 
2,-1,0,-4,19,6,0,-3,-1,0:52:13@19/4/2015,220845048 
2,-2,-2,1,27,16,-3,15,-1,0:52:13@19/4/2015,220845063 
2,4,-2,0,-14,-4,-1,-5,4,0:52:13@19/4/2015,220845078 
2,-3,0,-1,-13,-11,-4,-5,-2,0:52:13@19/4/2015,220845094 
2,0,1,2,5,5,-9,-1,-1,0:52:13@19/4/2015,220845110 
2,-3,-1,0,-1,-8,-2,-3,-1,0:52:13@19/4/2015,220845126 
2,-4,-5,-7,3,-13,-11,-7,-5,0:52:13@19/4/2015,220845143 
2,-2,-3,-11,-3,0,-1,-2,-2,0:52:13@19/4/2015,220845160 
2,0,2,5,4,13,8,3,0,0:52:13@19/4/2015,220845178 
2,-3,-5,6,22,3,5,-1,0,0:52:13@19/4/2015,220845197 
2,-3,-2,5,-3,-3,-1,-1,-12,0:52:13@19/4/2015,220845216 
2,-1,-1,-4,-3,-8,-1,2,-1,0:52:13@19/4/2015,220845236 
2,-3,-4,-3,-4,-2,-3,-6,-1,0:52:13@19/4/2015,220845256 
2,-3,-4,-3,-4,-2,-3,-6,-1,0:52:13@19/4/2015,220845265 
2,-1,-2,-9,-15,2,-2,0,2,0:52:13@19/4/2015,220845274 
2,3,3,5,1,-5,0,4,0,0:52:13@19/4/2015,220845283 
2,-4,-6,-4,-1,1,-6,-2,1,0:52:13@19/4/2015,220845293 
2,-1,1,2,-4,-5,-2,0,-2,0:52:13@19/4/2015,220845303 
2,0,0,-2,1,3,1,3,1,0:52:13@19/4/2015,220845314 
2,-4,-4,-1,-7,2,4,-4,-3,0:52:13@19/4/2015,220845325 
2,-1,-1,-4,12,7,-3,-1,-4,0:52:13@19/4/2015,220845336 
2,-1,-1,-3,-6,2,3,3,1,0:52:13@19/4/2015,220845349 
2,1,1,0,-11,0,-1,-2,0,0:52:13@19/4/2015,220845362 
2,-3,-3,-1,-6,5,2,-1,-2,0:52:13@19/4/2015,220845375 
2,-1,-1,-7,-11,-10,1,-8,-1,0:52:13@19/4/2015,220845388 
2,-2,3,-1,-4,-1,13,1,-3,0:52:13@19/4/2015,220845402 
2,-1,-5,-8,0,-2,2,-8,-2,0:52:13@19/4/2015,220845417 
2,2,4,1,7,-7,-2,-2,-1,0:52:13@19/4/2015,220845432 
2,-1,-3,-1,25,-7,-2,1,2,0:52:13@19/4/2015,220845448 
2,0,3,2,-11,-7,-4,2,-2,0:52:13@19/4/2015,220845464 
2,-5,-5,-5,-5,1,-5,-2,-2,0:52:13@19/4/2015,220845481 
2,1,4,7,1,7,1,-1,-1,0:52:13@19/4/2015,220845498 
2,-2,0,-2,18,2,0,2,0,0:52:13@19/4/2015,220845515 
2,0,1,2,2,2,0,0,-3,0:52:13@19/4/2015,220845533 
2,-2,-3,-4,-6,7,-5,-5,1,0:52:13@19/4/2015,220845551 
2,0,1,3,33,-5,2,1,0,0:52:13@19/4/2015,220845570 
2,-1,0,-2,-9,2,-2,0,-1,0:52:13@19/4/2015,220845589 
2,-2,0,-7,-12,13,-8,2,-2,0:52:13@19/4/2015,220845609 
2,-2,-7,-4,-13,2,5,2,0,0:52:13@19/4/2015,220845618 
2,-2,-7,-4,-13,2,5,2,0,0:52:13@19/4/2015,220845627 
2,-1,-5,-11,-6,-6,-2,-2,0,0:52:13@19/4/2015,220845636 
2,0,3,1,-4,-22,-9,-2,-2,0:52:13@19/4/2015,220845646 
2,0,-1,3,-3,-18,-1,-4,0,0:52:13@19/4/2015,220845656 
2,-3,-3,-4,-22,-1,-5,-4,-1,0:52:13@19/4/2015,220845666 
2,-1,1,0,1,2,2,-6,-2,0:52:13@19/4/2015,220845677 
2,-2,-1,0,-3,-4,2,3,-2,0:52:13@19/4/2015,220845698 
2,0,4,2,0,9,-3,1,0,0:52:13@19/4/2015,220845715 
2,0,-2,-3,8,-1,-3,0,0,0:52:13@19/4/2015,220845728 
2,-2,-1,-9,-20,-2,2,2,0,0:52:13@19/4/2015,220845741 
2,-1,0,3,9,-5,0,16,-1,0:52:13@19/4/2015,220845754 
2,-2,-1,1,-2,-6,2,-4,-1,0:52:13@19/4/2015,220845768 
2,0,0,2,0,-3,3,2,-1,0:52:13@19/4/2015,220845782 
2,-1,0,-5,-2,2,13,-1,1,0:52:13@19/4/2015,220845797 
2,0,-1,-2,-5,4,-13,1,-4,0:52:13@19/4/2015,220845813 
2,-4,-4,-15,-35,11,27,10,-3,0:52:13@19/4/2015,220845829 
2,-7,-7,-4,-12,-46,-26,-6,-4,0:52:13@19/4/2015,220845846 
2,-4,-9,-13,-57,-15,-19,0,-1,0:52:13@19/4/2015,220845863 
2,4,2,-3,9,15,-4,-11,0,0:52:13@19/4/2015,220845881 
2,0,2,6,-8,-15,-13,-2,-1,0:52:13@19/4/2015,220845899 
2,-3,-7,-11,-19,-16,-19,-10,-5,0:52:13@19/4/2015,220845918 
2,-2,-3,-4,6,-14,2,-6,-1,0:52:13@19/4/2015,220845937 
2,-3,-1,1,-23,-39,-8,-4,-2,0:52:13@19/4/2015,220845957 
2,0,2,7,33,39,7,0,1,0:52:13@19/4/2015,220845977 
2,1,1,-2,-15,-7,13,2,0,0:52:13@19/4/2015,220845986 
2,-2,-1,-1,-17,-44,-13,-2,1,0:52:13@19/4/2015,220845995 
2,1,7,12,15,64,9,4,3,0:52:14@19/4/2015,220846004 
2,-1,-2,-16,-29,-15,5,-5,-2,0:52:14@19/4/2015,220846015 
2,-2,-5,-2,3,-45,-15,-6,-3,0:52:14@19/4/2015,220846027 
2,-3,-2,1,-14,-12,-1,-1,-3,0:52:14@19/4/2015,220846039 
2,-3,-8,-7,-6,-23,-5,-2,-2,0:52:14@19/4/2015,220846052 
2,-4,-12,-28,-15,-68,-13,-5,-2,0:52:14@19/4/2015,220846065 
2,9,12,17,89,105,42,14,8,0:52:14@19/4/2015,220846079 
0,-2,-3,-4,-33,-27,-20,-6,-2,0:52:14@19/4/2015,220846093 
0,-1,2,9,0,-2,2,1,-1,0:52:14@19/4/2015,220846107 
0,1,3,4,-5,-4,-4,-2,-2,0:52:14@19/4/2015,220846122 
0,-4,-5,14,2,-37,-17,-4,-3,0:52:14@19/4/2015,220846137 
0,1,2,-1,-9,-26,3,-4,-1,0:52:14@19/4/2015,220846152 
0,-4,1,5,1,16,5,0,0,0:52:14@19/4/2015,220846167 
0,-3,-10,-14,-18,15,-4,-3,-2,0:52:14@19/4/2015,220846183 
0,-2,-2,-9,-25,-3,-8,-3,-2,0:52:14@19/4/2015,220846199 
0,-5,-7,-5,-13,4,-14,-5,-3,0:52:14@19/4/2015,220846216 
0,3,7,16,7,2,-13,-3,-2,0:52:14@19/4/2015,220846233 
0,-2,-5,-10,3,-6,3,0,-1,0:52:14@19/4/2015,220846250 
0,-1,-1,1,4,-20,0,1,-1,0:52:14@19/4/2015,220846268 
0,1,3,13,-4,14,7,0,0,0:52:14@19/4/2015,220846287 
0,-5,-4,-3,11,33,-23,-4,-4,0:52:14@19/4/2015,220846306 
4,-2,-5,-5,-3,-2,-6,-3,-2,0:52:14@19/4/2015,220846326 
4,-1,-7,-11,-12,-27,4,1,0,0:52:14@19/4/2015,220846346 
4,0,-5,-24,-17,12,-12,-2,0,0:52:14@19/4/2015,220846355 
4,-1,-6,-24,-17,-3,-4,-5,-3,0:52:14@19/4/2015,220846364 
4,-3,-1,18,-7,-19,-4,-4,-2,0:52:14@19/4/2015,220846374 
4,-5,-6,-6,35,17,-12,-2,-3,0:52:14@19/4/2015,220846384 
4,2,0,0,-9,-20,-15,-4,-3,0:52:14@19/4/2015,220846394 
4,2,6,18,1,-9,26,3,2,0:52:14@19/4/2015,220846405 
4,-2,-3,0,-11,15,-5,-1,-2,0:52:14@19/4/2015,220846416 
4,-5,-9,-2,-6,26,-3,-2,-3,0:52:14@19/4/2015,220846428 
4,-4,-3,-8,-6,0,-2,-2,-2,0:52:14@19/4/2015,220846440 
4,-3,-6,-8,-6,-5,-5,7,-1,0:52:14@19/4/2015,220846454 
4,0,6,12,3,-34,11,7,-2,0:52:14@19/4/2015,220846468 
4,0,0,2,0,42,3,1,1,0:52:14@19/4/2015,220846482 
4,0,-1,-6,0,-31,-1,0,0,0:52:14@19/4/2015,220846497 
4,-1,-5,-1,5,17,3,-3,-2,0:52:14@19/4/2015,220846512 
4,0,3,1,-17,-18,-1,0,-2,0:52:14@19/4/2015,220846527 
4,0,0,-3,3,3,-5,-3,-2,0:52:14@19/4/2015,220846542 
4,2,4,-2,-5,1,12,-1,0,0:52:14@19/4/2015,220846558 
4,1,5,0,6,38,26,1,0,0:52:14@19/4/2015,220846575 
4,-4,-5,-14,-11,-6,-9,-2,-3,0:52:14@19/4/2015,220846592 
4,-3,-4,-6,-3,22,4,0,-1,0:52:14@19/4/2015,220846609 
4,1,-1,-2,0,1,-4,-1,-1,0:52:14@19/4/2015,220846627 
4,2,4,9,9,7,-2,1,1,0:52:14@19/4/2015,220846645 
4,-3,-2,3,-15,2,10,-1,-2,0:52:14@19/4/2015,220846664 
4,1,-2,-4,-3,2,-3,-1,-1,0:52:14@19/4/2015,220846684 
4,-2,0,-1,1,33,-4,-2,-2,0:52:14@19/4/2015,220846716 
4,0,0,-4,-8,-12,-1,-1,-2,0:52:14@19/4/2015,220846733 
4,-1,0,-1,4,-2,-7,-1,0,0:52:14@19/4/2015,220846742 
4,3,-2,-1,-6,-9,-6,-9,-1,0:52:14@19/4/2015,220846752 
4,3,-2,-1,-6,-9,-6,-9,-1,0:52:14@19/4/2015,220846762 
4,0,-3,-1,1,-10,-7,-16,-2,0:52:14@19/4/2015,220846772 
4,-1,2,5,4,-3,15,-2,2,0:52:14@19/4/2015,220846783 
4,-2,-3,1,-3,-14,-1,-5,-1,0:52:14@19/4/2015,220846794 
4,-2,-2,-4,-1,11,-4,0,-1,0:52:14@19/4/2015,220846805 
4,-1,-4,2,3,-10,-6,0,-3,0:52:14@19/4/2015,220846817 
4,-1,0,-7,-1,11,-4,1,-1,0:52:14@19/4/2015,220846829 
4,0,-1,1,-7,-8,-6,-7,0,0:52:14@19/4/2015,220846842 
4,-5,-4,-6,15,-13,5,6,0,0:52:14@19/4/2015,220846856 
4,0,2,1,-5,24,-3,4,0,0:52:14@19/4/2015,220846870 
4,0,2,6,4,8,3,1,0,0:52:14@19/4/2015,220846885 
4,-3,-4,-3,-11,6,-5,-27,-1,0:52:14@19/4/2015,220846900 
4,-2,-1,-5,-20,-29,-4,9,-4,0:52:14@19/4/2015,220846915 
4,1,-1,6,23,-9,-5,-2,-1,0:52:14@19/4/2015,220846931 
4,-3,-4,-10,-18,-9,-4,-2,-1,0:52:14@19/4/2015,220846948 
4,0,-1,-3,-17,-8,-2,17,2,0:52:14@19/4/2015,220846965 
4,1,2,1,-12,-9,11,21,5,0:52:14@19/4/2015,220846983 
4,0,2,3,11,21,-3,10,0,0:52:15@19/4/2015,220847001 
4,-2,0,-1,-3,-10,-5,-4,-3,0:52:15@19/4/2015,220847019 
4,0,0,7,25,-5,-4,-10,-1,0:52:15@19/4/2015,220847038 
4,0,1,1,7,6,-2,-5,-3,0:52:15@19/4/2015,220847057 
4,0,1,1,-22,-15,14,24,0,0:52:15@19/4/2015,220847077 
4,0,1,1,-22,-15,14,24,0,0:52:15@19/4/2015,220847086 
4,-2,-4,-2,-7,-5,-12,-5,-1,0:52:15@19/4/2015,220847095 
4,0,1,-3,-24,-22,-10,-5,-3,0:52:15@19/4/2015,220847104 
4,0,1,-3,-24,-22,-10,-5,-3,0:52:15@19/4/2015,220847114 
4,-1,-1,-1,-3,-7,-7,0,1,0:52:15@19/4/2015,220847124 
4,-3,-4,-3,-2,23,5,-3,-1,0:52:15@19/4/2015,220847135 
4,-3,-4,-3,-2,23,5,-3,-1,0:52:15@19/4/2015,220847146 
4,-4,-5,-2,8,3,-5,-6,-2,0:52:15@19/4/2015,220847157 
4,0,2,3,7,20,5,1,0,0:52:15@19/4/2015,220847169 
4,0,0,-12,-6,-6,6,-4,-1,0:52:15@19/4/2015,220847182 
4,-2,-2,0,0,-1,4,0,0,0:52:15@19/4/2015,220847195 
4,2,3,-2,-4,-2,3,-1,0,0:52:15@19/4/2015,220847208 
4,-2,-2,-4,7,12,0,0,-2,0:52:15@19/4/2015,220847222 
4,1,1,-1,-16,-14,0,0,-1,0:52:15@19/4/2015,220847236 
4,-3,1,1,6,10,1,-1,0,0:52:15@19/4/2015,220847251 
4,-3,1,1,6,10,1,-1,0,0:52:15@19/4/2015,220847266 
4,-2,-2,-11,-3,25,7,-2,-2,0:52:15@19/4/2015,220847284 
4,1,-4,-5,-10,-11,-3,-8,0,0:52:15@19/4/2015,220847303 
4,1,3,-2,1,8,-2,1,-1,0:52:15@19/4/2015,220847322 
4,-2,-4,0,-2,-3,-1,-2,-1,0:52:15@19/4/2015,220847341 
4,-1,-3,-4,4,12,0,-3,-1,0:52:15@19/4/2015,220847361 
4,-1,-3,0,19,13,-3,-1,0,0:52:15@19/4/2015,220847381 
4,-1,-2,0,4,1,-1,-3,-2,0:52:15@19/4/2015,220847401 
4,-1,1,2,3,16,3,-3,-1,0:52:15@19/4/2015,220847421 
4,0,0,-11,-8,-17,0,-4,1,0:52:15@19/4/2015,220847441 
4,0,2,3,2,20,10,2,0,0:52:15@19/4/2015,220847450 
4,0,0,3,-5,-20,-5,1,0,0:52:15@19/4/2015,220847459 
4,-3,-2,-1,4,-18,-5,-3,-2,0:52:15@19/4/2015,220847470 
4,-1,-1,1,-12,-7,1,-2,-2,0:52:15@19/4/2015,220847480 
4,-2,-4,2,-2,-3,-4,0,-1,0:52:15@19/4/2015,220847490 
4,0,0,3,0,-7,-5,1,-1,0:52:15@19/4/2015,220847501 
4,-2,-3,-5,3,29,2,-3,-3,0:52:15@19/4/2015,220847512 
4,0,2,1,-7,-14,-11,-3,0,0:52:15@19/4/2015,220847524 
4,-1,-5,-1,17,14,-6,-1,-2,0:52:15@19/4/2015,220847536 
4,0,-1,-3,1,-4,15,1,0,0:52:15@19/4/2015,220847549 
4,2,0,5,5,8,-4,1,2,0:52:15@19/4/2015,220847562 
4,-2,-6,0,1,-11,7,-3,-3,0:52:15@19/4/2015,220847576 
4,-2,-5,-6,-11,-5,-4,1,-3,0:52:15@19/4/2015,220847590 
4,-1,-1,3,-3,-26,-4,-8,-2,0:52:15@19/4/2015,220847605 
4,-2,-2,-2,-2,8,-1,1,0,0:52:15@19/4/2015,220847620 
4,-1,1,0,-4,-29,-20,-2,-1,0:52:15@19/4/2015,220847636 
4,-1,-1,-8,2,1,-12,0,-2,0:52:15@19/4/2015,220847652 
4,0,3,6,9,6,-13,-2,-1,0:52:15@19/4/2015,220847668 
4,-2,-2,-4,-16,-9,7,3,-2,0:52:15@19/4/2015,220847685 
4,-2,2,8,5,21,3,-1,-2,0:52:15@19/4/2015,220847702 
4,1,-4,-1,14,43,5,0,-2,0:52:15@19/4/2015,220847720 
4,1,3,4,-5,-18,17,3,0,0:52:15@19/4/2015,220847739 
4,-2,-1,-3,-7,-27,0,-1,-2,0:52:15@19/4/2015,220847758 
4,-5,-12,-13,-10,-30,-5,-2,-2,0:52:15@19/4/2015,220847778 
4,-1,0,2,9,33,-2,0,1,0:52:15@19/4/2015,220847798 
4,-1,-3,-5,-11,-37,4,1,-2,0:52:15@19/4/2015,220847807 
4,0,2,4,-22,-16,-13,-3,0,0:52:15@19/4/2015,220847816 
4,0,2,4,-22,-16,-13,-3,0,0:52:15@19/4/2015,220847825 
4,-2,-5,-3,-6,-2,2,-2,-1,0:52:15@19/4/2015,220847835 
4,3,1,1,-3,5,3,0,0,0:52:15@19/4/2015,220847845 
4,-2,-2,-4,-17,-5,-9,-2,-1,0:52:15@19/4/2015,220847856 
4,0,-2,-1,1,-4,4,4,2,0:52:15@19/4/2015,220847867 
4,-1,-1,-1,3,-27,-19,-2,-4,0:52:15@19/4/2015,220847879 
4,-2,1,-1,2,-5,-12,-1,-1,0:52:15@19/4/2015,220847891 
4,1,2,-1,0,1,-9,-4,1,0:52:15@19/4/2015,220847904 
4,-2,-1,4,23,22,2,0,-1,0:52:15@19/4/2015,220847917 
4,-4,0,0,2,5,6,-3,-2,0:52:15@19/4/2015,220847931 
4,-3,-5,-4,1,-46,-3,-1,-1,0:52:15@19/4/2015,220847945 
4,-1,-3,0,-12,0,4,1,-1,0:52:15@19/4/2015,220847960 
4,-3,-3,0,11,-4,-14,-2,-1,0:52:15@19/4/2015,220847975 
4,0,-1,1,-9,1,-5,0,0,0:52:15@19/4/2015,220847990 
4,-2,-4,-4,-10,-12,-8,-3,-2,0:52:16@19/4/2015,220848006 
4,-2,-3,-17,-4,-10,-1,-7,-4,0:52:16@19/4/2015,220848022 
4,1,0,0,8,-11,15,1,1,0:52:16@19/4/2015,220848039 
4,0,0,-4,-7,11,1,0,0,0:52:16@19/4/2015,220848056 
4,-2,-1,2,3,4,2,1,0,0:52:16@19/4/2015,220848074 
4,1,-1,-2,-10,-8,-12,-3,-2,0:52:16@19/4/2015,220848093 
4,1,0,-2,2,-2,3,1,1,0:52:16@19/4/2015,220848112 
4,-1,2,-6,-15,6,10,7,1,0:52:16@19/4/2015,220848131 
4,-1,0,2,-4,-4,-3,-5,-3,0:52:16@19/4/2015,220848151 
4,0,1,1,1,10,1,1,-1,0:52:16@19/4/2015,220848160 
4,0,-3,0,-3,8,1,-3,1,0:52:16@19/4/2015,220848169 
4,0,-2,-6,1,-8,-3,-3,-1,0:52:16@19/4/2015,220848178 
4,0,-2,-6,1,-8,-3,-3,-1,0:52:16@19/4/2015,220848188 
4,-2,1,2,0,-1,-3,-4,-1,0:52:16@19/4/2015,220848199 
4,-2,-2,0,7,13,1,-2,-2,0:52:16@19/4/2015,220848210 
4,0,0,-1,-2,15,0,-2,0,0:52:16@19/4/2015,220848221 
4,-1,-6,-4,0,-9,0,3,-2,0:52:16@19/4/2015,220848233 
4,-1,-6,-4,0,-9,0,3,-2,0:52:16@19/4/2015,220848245 
4,-2,3,5,4,3,1,-10,-2,0:52:16@19/4/2015,220848257 
4,-2,-2,1,1,-4,1,-6,-3,0:52:16@19/4/2015,220848270 
4,0,2,1,-1,-3,1,0,-3,0:52:16@19/4/2015,220848283 
4,-2,-5,3,12,8,-4,-2,-1,0:52:16@19/4/2015,220848297 
4,-1,-1,-1,-18,-3,-4,0,0,0:52:16@19/4/2015,220848312 
4,-3,-2,0,3,27,-4,1,-2,0:52:16@19/4/2015,220848327 
4,1,3,7,2,0,-2,3,1,0:52:16@19/4/2015,220848342 
4,-2,2,0,-1,7,4,1,0,0:52:16@19/4/2015,220848358 
4,-3,-4,-3,-6,12,1,-2,-2,0:52:16@19/4/2015,220848374 
4,-1,0,0,-5,-60,-9,-12,-3,0:52:16@19/4/2015,220848391 
4,0,-2,-4,-12,7,2,0,-2,0:52:16@19/4/2015,220848408 
4,0,0,-1,-7,-10,-2,-3,-3,0:52:16@19/4/2015,220848426 
4,-3,-5,-3,-3,3,-1,1,-1,0:52:16@19/4/2015,220848444 
4,-2,-5,-2,1,4,-1,-9,0,0:52:16@19/4/2015,220848463 
4,1,1,2,3,-11,-3,-3,2,0:52:16@19/4/2015,220848482 
4,-1,0,-1,-6,-10,-1,0,-2,0:52:16@19/4/2015,220848501 
4,-1,0,-1,1,4,2,2,-1,0:52:16@19/4/2015,220848510 
4,-2,-4,-3,-2,-11,-2,6,-1,0:52:16@19/4/2015,220848519 
4,-2,2,2,6,-2,-1,-1,-2,0:52:16@19/4/2015,220848528 
4,2,0,-1,-3,0,-1,-5,-1,0:52:16@19/4/2015,220848537 
4,2,0,-1,-3,0,-1,-5,-1,0:52:16@19/4/2015,220848547 
4,-1,0,-3,-4,-4,-2,-5,-2,0:52:16@19/4/2015,220848558 
4,-4,-7,-9,3,2,3,2,-4,0:52:16@19/4/2015,220848569 
4,-2,-4,-2,-16,-6,-3,-8,-3,0:52:16@19/4/2015,220848581 
4,0,-2,-5,-7,-8,-7,2,-1,0:52:16@19/4/2015,220848593 
4,0,-2,-5,-7,-8,-7,2,-1,0:52:16@19/4/2015,220848606 
4,0,2,4,6,1,2,15,-2,0:52:16@19/4/2015,220848619 
4,-2,-2,0,-1,-2,-1,-4,0,0:52:16@19/4/2015,220848633 
4,-1,-3,0,0,1,-3,-6,-3,0:52:16@19/4/2015,220848647 
4,0,-1,-1,-11,-12,-4,-14,5,0:52:16@19/4/2015,220848661 
4,0,1,5,38,30,2,-3,0,0:52:16@19/4/2015,220848676 
4,-2,0,1,-13,-8,-9,0,1,0:52:16@19/4/2015,220848691 
4,-2,-3,-4,1,-1,-26,-8,4,0:52:16@19/4/2015,220848707 
4,-2,-2,0,17,1,46,15,3,0:52:16@19/4/2015,220848723 
4,-2,-2,1,11,-10,10,-5,-7,0:52:16@19/4/2015,220848740 
4,-3,-2,-7,-21,-7,-19,-14,-12,0:52:16@19/4/2015,220848758 
4,0,-4,-4,-22,-7,-10,12,2,0:52:16@19/4/2015,220848776 
4,-2,-4,-2,15,3,-11,-16,0,0:52:16@19/4/2015,220848794 
4,0,1,4,48,9,17,8,-1,0:52:16@19/4/2015,220848813 
4,-1,1,3,1,2,15,10,-6,0:52:16@19/4/2015,220848832 
4,6,1,-5,-30,-7,1,0,10,0:52:16@19/4/2015,220848852 
4,-1,0,4,48,4,-7,4,3,0:52:16@19/4/2015,220848861 
4,-1,0,4,48,4,-7,4,3,0:52:16@19/4/2015,220848870 
4,-1,-7,-11,-24,-1,-5,14,8,0:52:16@19/4/2015,220848880 
4,-3,2,-2,-14,-3,-4,2,2,0:52:16@19/4/2015,220848890 
4,-4,-3,-4,-6,-1,-1,-4,-6,0:52:16@19/4/2015,220848901 
4,1,-1,0,-13,-6,-1,-8,-1,0:52:16@19/4/2015,220848912 
4,1,-3,-3,-9,-5,-4,-12,0,0:52:16@19/4/2015,220848923 
0,-3,-1,0,-15,-8,-2,3,-3,0:52:16@19/4/2015,220848935 
0,-4,-1,3,-13,2,-4,0,-1,0:52:16@19/4/2015,220848947 
0,2,-1,0,-8,1,3,8,2,0:52:16@19/4/2015,220848959 
0,-2,-5,0,10,5,1,-1,-2,0:52:16@19/4/2015,220848972 
0,-3,2,4,-6,1,-4,0,-2,0:52:16@19/4/2015,220848986 
0,0,4,4,-8,5,2,-1,-2,0:52:17@19/4/2015,220849000 
0,1,-1,1,-2,4,-7,-23,-5,0:52:17@19/4/2015,220849015 
0,1,0,0,-28,-13,-8,-4,0,0:52:17@19/4/2015,220849030 
0,-1,1,-2,-26,-12,-9,2,1,0:52:17@19/4/2015,220849045 
0,2,2,2,2,-5,2,8,1,0:52:17@19/4/2015,220849061 
0,-1,1,0,-8,-4,-2,5,-5,0:52:17@19/4/2015,220849077 
0,-2,-6,-1,6,2,1,6,1,0:52:17@19/4/2015,220849094 
0,1,1,1,19,0,-2,7,4,0:52:17@19/4/2015,220849112 
0,-2,-3,-5,-6,-9,-4,-4,-3,0:52:17@19/4/2015,220849130 
0,-2,-1,-1,9,3,1,1,0,0:52:17@19/4/2015,220849148 
0,0,-1,-5,-4,2,-3,-1,3,0:52:17@19/4/2015,220849167 
0,-1,-1,-10,-13,1,3,-4,1,0:52:17@19/4/2015,220849186 
0,1,0,-3,8,8,-7,0,0,0:52:17@19/4/2015,220849206 
0,-5,-4,-6,1,-4,4,-2,-1,0:52:17@19/4/2015,220849215 
0,-2,-2,-3,-12,-7,-1,-1,1,0:52:17@19/4/2015,220849224 
0,0,-1,4,10,-1,-6,-1,-4,0:52:17@19/4/2015,220849233 
0,0,1,2,-3,0,2,1,2,0:52:17@19/4/2015,220849243 
0,-4,-1,-3,-5,-4,0,-2,-2,0:52:17@19/4/2015,220849253 
0,1,2,6,-6,-5,0,0,0,0:52:17@19/4/2015,220849264 
0,-3,-5,-23,6,0,3,0,-2,0:52:17@19/4/2015,220849275 
0,-1,2,6,9,2,-4,-1,0,0:52:17@19/4/2015,220849287 
0,-1,0,-1,1,-7,4,-1,-1,0:52:17@19/4/2015,220849299 
0,-1,-1,-2,9,8,-1,0,0,0:52:17@19/4/2015,220849312 
0,-1,0,1,-18,-8,-4,-3,-3,0:52:17@19/4/2015,220849325 
0,1,1,-9,-5,9,-6,-2,-1,0:52:17@19/4/2015,220849339 
0,1,1,-9,-5,9,-6,-2,-1,0:52:17@19/4/2015,220849353 
0,4,4,0,7,-7,18,7,5,0:52:17@19/4/2015,220849368 
0,-1,-1,-1,4,-15,0,-3,-2,0:52:17@19/4/2015,220849383 
0,-2,-1,-3,0,-1,-4,-4,-2,0:52:17@19/4/2015,220849398 
0,0,1,2,4,0,-3,-2,-3,0:52:17@19/4/2015,220849414 
0,-3,-1,-5,-6,13,-2,-1,-1,0:52:17@19/4/2015,220849431 
0,-2,-4,-4,19,9,9,-4,-3,0:52:17@19/4/2015,220849448 
0,0,1,4,-8,-11,-3,5,3,0:52:17@19/4/2015,220849465 
0,0,-1,-1,-2,6,-2,-2,1,0:52:17@19/4/2015,220849483 
0,-2,-4,0,4,2,2,-1,0,0:52:17@19/4/2015,220849501 
0,-6,-3,-6,-2,-4,-3,-1,-3,0:52:17@19/4/2015,220849520 
0,0,1,1,34,5,-2,4,-2,0:52:17@19/4/2015,220849539 
0,1,1,1,-12,1,-1,-6,0,0:52:17@19/4/2015,220849559 
0,-4,-6,-3,-13,-12,-8,-1,-3,0:52:17@19/4/2015,220849568 
0,4,4,2,0,1,3,-4,0,0:52:17@19/4/2015,220849577 
0,4,4,2,0,1,3,-4,0,0:52:17@19/4/2015,220849586 
0,-1,-2,0,-1,3,-6,-3,-4,0:52:17@19/4/2015,220849596 
0,0,-1,-1,-9,0,2,-1,-2,0:52:17@19/4/2015,220849606 
0,-2,-2,4,-24,-12,-1,7,2,0:52:17@19/4/2015,220849617 
0,-2,-4,-10,-7,-2,-7,-8,-1,0:52:17@19/4/2015,220849628 
0,0,0,0,-3,-1,-4,-8,-4,0:52:17@19/4/2015,220849639 
0,0,0,0,-3,-1,-4,-8,-4,0:52:17@19/4/2015,220849651 
0,1,0,2,-1,2,-2,0,-1,0:52:17@19/4/2015,220849664 
0,0,-1,-1,11,1,2,-3,0,0:52:17@19/4/2015,220849677 
0,-4,0,-4,3,-2,-2,0,-1,0:52:17@19/4/2015,220849690 
0,2,3,6,-3,-8,0,-2,-1,0:52:17@19/4/2015,220849704 
0,-5,-8,-5,-9,0,-4,-3,-1,0:52:17@19/4/2015,220849718 
0,0,3,6,14,5,1,2,-1,0:52:17@19/4/2015,220849733 
0,-1,-2,-5,6,-9,-3,-1,-1,0:52:17@19/4/2015,220849749 
0,2,0,4,-1,0,0,6,0,0:52:17@19/4/2015,220849768 
0,-1,-1,-8,-12,2,-1,-1,-2,0:52:17@19/4/2015,220849785 
0,1,-1,2,5,-9,-1,-6,1,0:52:17@19/4/2015,220849802 
0,1,-1,-6,1,-5,0,2,-1,0:52:17@19/4/2015,220849819 
0,-3,-3,3,-6,-6,1,1,0,0:52:17@19/4/2015,220849837 
0,-6,-5,-1,-8,-4,-7,-3,-2,0:52:17@19/4/2015,220849856 
0,0,-2,2,-30,-1,1,0,-1,0:52:17@19/4/2015,220849875 
0,-2,0,-5,-2,-3,-3,0,-1,0:52:17@19/4/2015,220849894 
0,2,1,-3,9,1,0,0,-1,0:52:17@19/4/2015,220849915 
0,2,1,-3,9,1,0,0,-1,0:52:17@19/4/2015,220849924 
0,-1,0,0,0,4,-3,-3,-1,0:52:17@19/4/2015,220849933 
0,-1,0,0,0,4,-3,-3,-1,0:52:17@19/4/2015,220849942 
0,1,-1,3,-3,-2,-5,0,0,0:52:17@19/4/2015,220849951 
0,-5,-3,-7,1,2,-6,-1,-3,0:52:17@19/4/2015,220849961 
0,-5,-3,-7,1,2,-6,-1,-3,0:52:17@19/4/2015,220849972 
0,0,-2,-1,14,-4,1,-1,-3,0:52:17@19/4/2015,220849984 
0,-1,-2,-5,-21,-6,0,-2,-2,0:52:17@19/4/2015,220849996 
0,-1,2,6,-35,-12,-4,-1,0,0:52:18@19/4/2015,220850008 
0,1,3,2,6,-10,-1,-3,-2,0:52:18@19/4/2015,220850022 
0,1,3,2,6,-10,-1,-3,-2,0:52:18@19/4/2015,220850037 
0,-3,-3,-8,-2,2,-2,-3,-1,0:52:18@19/4/2015,220850052 
0,1,-3,-3,1,9,2,-1,0,0:52:18@19/4/2015,220850068 
0,-1,-1,1,-3,12,-2,-9,-3,0:52:18@19/4/2015,220850083 
0,-1,-2,-4,-6,-15,-3,-1,-2,0:52:18@19/4/2015,220850098 
0,-4,-5,-3,-7,-3,11,2,-3,0:52:18@19/4/2015,220850114 
0,2,1,-4,-18,5,-5,-3,-2,0:52:18@19/4/2015,220850132 
0,-1,-4,1,-2,-1,7,7,-1,0:52:18@19/4/2015,220850149 
0,0,1,-1,-7,-6,-2,-11,-1,0:52:18@19/4/2015,220850166 
0,-1,-4,-4,-18,0,1,-1,1,0:52:18@19/4/2015,220850184 
0,-2,-1,1,-24,-7,11,0,-3,0:52:18@19/4/2015,220850202 
0,0,0,-5,16,12,2,3,1,0:52:18@19/4/2015,220850220 
0,1,1,4,13,0,-2,-2,-2,0:52:18@19/4/2015,220850239 
0,-3,-5,-6,3,-9,-4,-4,-3,0:52:18@19/4/2015,220850259 
0,-1,1,6,0,3,1,-1,0,0:52:18@19/4/2015,220850279 
0,0,1,-5,-1,4,-2,-3,-1,0:52:18@19/4/2015,220850288 
0,0,1,-5,-1,4,-2,-3,-1,0:52:18@19/4/2015,220850297 
0,0,1,1,6,0,-2,0,-1,0:52:18@19/4/2015,220850306 
0,0,0,4,2,3,-3,-4,0,0:52:18@19/4/2015,220850316 
0,0,-3,-6,-9,-14,8,-3,0,0:52:18@19/4/2015,220850326 
0,-1,-1,-1,2,6,7,1,-2,0:52:18@19/4/2015,220850337 
0,-2,-4,-7,-1,-3,9,-2,-2,0:52:18@19/4/2015,220850348 
0,-2,-4,-7,-1,-3,9,-2,-2,0:52:18@19/4/2015,220850359 
0,-2,-3,-1,-4,-1,-3,-2,-1,0:52:18@19/4/2015,220850372 
0,1,0,-3,-13,1,4,2,-3,0:52:18@19/4/2015,220850384 
0,-3,-5,-2,0,1,-6,-1,1,0:52:18@19/4/2015,220850397 
0,1,1,-4,-22,-15,-3,-2,-2,0:52:18@19/4/2015,220850411 
0,-3,-3,-1,6,1,-5,-4,-1,0:52:18@19/4/2015,220850425 
0,0,2,8,12,10,3,1,-1,0:52:18@19/4/2015,220850440 
0,1,0,0,-12,-16,-1,1,1,0:52:18@19/4/2015,220850455 
0,-1,1,-4,-7,9,2,-3,-1,0:52:18@19/4/2015,220850470 
0,1,0,-1,4,-5,-11,2,2,0:52:18@19/4/2015,220850486 
0,-2,-6,-9,-11,4,0,3,-1,0:52:18@19/4/2015,220850502 
0,0,-3,3,11,0,-4,-8,0,0:52:18@19/4/2015,220850519 
0,-2,-4,-2,2,3,1,0,-4,0:52:18@19/4/2015,220850536 
0,-2,0,-1,11,2,-1,1,-1,0:52:18@19/4/2015,220850554 
0,-2,-3,-6,4,-1,2,2,0,0:52:18@19/4/2015,220850572 
0,0,1,0,-1,-14,-5,-1,0,0:52:18@19/4/2015,220850591 
0,-3,-6,-2,-1,0,-7,-1,-2,0:52:18@19/4/2015,220850611 
0,-1,-4,-1,-2,-2,-7,-1,0,0:52:18@19/4/2015,220850631 
0,-2,0,-3,4,10,11,5,1,0:52:18@19/4/2015,220850640 
0,2,2,-2,-9,-5,-4,1,-1,0:52:18@19/4/2015,220850649 
0,-2,-2,4,5,5,-1,-2,-2,0:52:18@19/4/2015,220850658 
0,-2,-3,-9,-3,-1,1,0,0,0:52:18@19/4/2015,220850668 
0,-1,-1,2,7,0,-1,1,-2,0:52:18@19/4/2015,220850678 
0,-1,-1,2,7,0,-1,1,-2,0:52:18@19/4/2015,220850689 
0,-1,-5,-12,-19,-6,-5,-2,-1,0:52:18@19/4/2015,220850700 
0,0,2,0,5,8,1,-2,-1,0:52:18@19/4/2015,220850712 
0,-4,-4,-8,-13,-5,0,0,-1,0:52:18@19/4/2015,220850724 
0,-4,-5,-4,-3,2,-2,-1,1,0:52:18@19/4/2015,220850736 
0,-1,-1,1,-2,3,3,1,0,0:52:18@19/4/2015,220850749 
0,1,-1,3,3,-2,-1,-1,-3,0:52:18@19/4/2015,220850762 
0,1,0,0,-1,-2,-7,-1,-3,0:52:18@19/4/2015,220850776 
0,1,-2,2,3,-1,-1,-2,-1,0:52:18@19/4/2015,220850791 
0,-5,-6,-6,-9,-3,1,-2,-3,0:52:18@19/4/2015,220850806 
0,0,1,3,0,-4,0,-1,-2,0:52:18@19/4/2015,220850822 
0,-2,-1,-1,-10,-6,1,0,-1,0:52:18@19/4/2015,220850838 
0,2,-1,-7,0,-10,-3,-2,0,0:52:18@19/4/2015,220850855 
0,2,-1,-1,4,0,0,-2,-3,0:52:18@19/4/2015,220850872 
0,-3,-1,1,1,-1,-1,-1,-2,0:52:18@19/4/2015,220850890 
0,1,-2,-3,1,-1,5,-1,-2,0:52:18@19/4/2015,220850908 
0,-3,-1,5,-4,1,-4,-2,-2,0:52:18@19/4/2015,220850927 
0,0,2,0,16,-7,-1,-4,-2,0:52:18@19/4/2015,220850946 
0,0,1,-4,3,-1,-3,1,-3,0:52:18@19/4/2015,220850965 
0,-3,-4,-3,0,4,-1,-4,-2,0:52:18@19/4/2015,220850985 
0,0,0,1,5,-4,3,-3,0,0:52:18@19/4/2015,220850994 
0,0,0,-2,-4,-14,-5,-3,0,0:52:19@19/4/2015,220851003 
0,0,0,-2,-4,-14,-5,-3,0,0:52:19@19/4/2015,220851012 
0,-6,-3,-8,1,-5,0,-4,-3,0:52:19@19/4/2015,220851022 
0,2,2,2,1,-3,3,0,0,0:52:19@19/4/2015,220851033 
0,2,2,2,1,-3,3,0,0,0:52:19@19/4/2015,220851043 
0,0,-2,-6,-3,-1,0,0,-2,0:52:19@19/4/2015,220851054 
0,0,-2,-6,-3,-1,0,0,-2,0:52:19@19/4/2015,220851066 
0,-2,-3,0,-3,-1,-4,-1,-2,0:52:19@19/4/2015,220851078 
0,-2,-2,5,29,5,1,0,-1,0:52:19@19/4/2015,220851091 
0,-2,-2,5,29,5,1,0,-1,0:52:19@19/4/2015,220851104 
0,0,1,-1,-21,0,-3,-2,-1,0:52:19@19/4/2015,220851118 
0,-2,-1,-2,3,1,0,-2,-2,0:52:19@19/4/2015,220851132 
0,0,1,-1,-9,2,-3,-1,-1,0:52:19@19/4/2015,220851147 
0,1,1,2,-1,-23,4,-1,-2,0:52:19@19/4/2015,220851162 
0,-1,-1,-1,27,3,0,-1,0,0:52:19@19/4/2015,220851177 
0,-1,-1,-4,0,-9,-4,-1,-5,0:52:19@19/4/2015,220851193 
0,-2,-2,2,-9,3,11,2,3,0:52:19@19/4/2015,220851209 
0,-3,-4,-2,7,-3,-4,0,0,0:52:19@19/4/2015,220851226 
0,2,2,-3,-6,-5,-6,2,-1,0:52:19@19/4/2015,220851244 
0,-3,-7,-2,-3,5,-1,-1,-3,0:52:19@19/4/2015,220851262 
0,-1,0,-1,-10,0,-1,-1,-1,0:52:19@19/4/2015,220851280 
0,-2,-2,1,3,1,-1,-3,-3,0:52:19@19/4/2015,220851299 
0,-3,-4,-7,-3,0,-1,0,-3,0:52:19@19/4/2015,220851319 
0,-1,-1,-8,-15,-7,0,-2,0,0:52:19@19/4/2015,220851339 
0,0,-1,-2,26,-3,-2,-1,0,0:52:19@19/4/2015,220851348 
0,-4,0,5,6,0,-3,0,-2,0:52:19@19/4/2015,220851357 
0,-4,0,5,6,0,-3,0,-2,0:52:19@19/4/2015,220851367 
0,1,-1,-3,0,-10,-9,-2,0,0:52:19@19/4/2015,220851377 
0,-3,-1,0,-4,1,5,-1,-1,0:52:19@19/4/2015,220851387 
0,0,7,12,-1,-4,-2,-5,-1,0:52:19@19/4/2015,220851398 
0,-3,-3,-5,-1,10,-2,-1,0,0:52:19@19/4/2015,220851409 
0,-2,-1,-7,6,-6,-5,-2,-2,0:52:19@19/4/2015,220851421 
0,0,1,3,-10,14,7,3,-1,0:52:19@19/4/2015,220851433 
0,2,2,-1,-1,-5,-2,-3,-3,0:52:19@19/4/2015,220851446 
0,3,0,-1,0,-6,-4,0,0,0:52:19@19/4/2015,220851459 
0,0,-1,-4,-7,-2,6,3,0,0:52:19@19/4/2015,220851473 
0,0,-1,-4,-7,-2,6,3,0,0:52:19@19/4/2015,220851487 
0,-4,-9,-8,11,-2,-5,-4,-1,0:52:19@19/4/2015,220851502 
0,-2,-1,3,1,3,1,0,-3,0:52:19@19/4/2015,220851518 
0,-1,-1,-4,15,9,4,-4,-2,0:52:19@19/4/2015,220851533 
0,0,-1,-2,2,-5,1,-1,-1,0:52:19@19/4/2015,220851549 
0,-1,-1,-4,-3,2,0,2,0,0:52:19@19/4/2015,220851565 
0,0,-4,-5,-6,-2,-4,-1,1,0:52:19@19/4/2015,220851582 
0,-1,6,3,0,8,2,1,0,0:52:19@19/4/2015,220851600 
0,-2,0,1,-2,-1,13,1,-2,0:52:19@19/4/2015,220851618 
0,0,-2,0,-3,-4,-3,1,1,0:52:19@19/4/2015,220851636 
0,-2,-3,-13,-17,-6,-5,-2,-1,0:52:19@19/4/2015,220851655 
0,-1,-1,-2,-5,-8,1,-2,-4,0:52:19@19/4/2015,220851674 
0,-1,1,-1,-5,1,-7,-2,-2,0:52:19@19/4/2015,220851694 
0,-1,-2,-4,-13,-8,1,-1,-2,0:52:19@19/4/2015,220851703 
0,-1,-4,-6,-7,1,1,0,0,0:52:19@19/4/2015,220851712 
0,-1,-1,4,32,4,-5,-3,-5,0:52:19@19/4/2015,220851721 
0,1,4,3,1,-5,-1,0,3,0:52:19@19/4/2015,220851731 
0,0,-4,0,-9,3,-10,0,0,0:52:19@19/4/2015,220851741 
0,-5,-7,-2,4,8,6,-1,-2,0:52:19@19/4/2015,220851752 
0,-1,-3,-2,9,21,0,-5,-2,0:52:19@19/4/2015,220851763 
0,-2,-2,-7,-13,-17,-5,-2,-2,0:52:19@19/4/2015,220851775 
0,-2,-2,-7,-13,-17,-5,-2,-2,0:52:19@19/4/2015,220851787 
0,1,3,9,-8,-6,0,-2,2,0:52:19@19/4/2015,220851803 
0,-1,1,-7,21,-17,-2,-1,-1,0:52:19@19/4/2015,220851816 
0,-1,0,-1,-9,-5,5,-2,-1,0:52:19@19/4/2015,220851830 
0,-4,-6,-4,-16,3,1,-1,0,0:52:19@19/4/2015,220851844 
0,1,7,5,-6,-6,-1,-4,1,0:52:19@19/4/2015,220851859 
0,0,-1,5,3,1,2,0,2,0:52:19@19/4/2015,220851875 
0,-3,-3,-9,-1,3,-1,0,-3,0:52:19@19/4/2015,220851890 
0,0,-1,7,-8,1,0,0,2,0:52:19@19/4/2015,220851906 
0,-2,-2,1,14,2,0,0,-3,0:52:19@19/4/2015,220851922 
0,-2,3,1,-5,-8,-2,-1,0,0:52:19@19/4/2015,220851939 
0,-1,-1,-5,-6,-11,1,1,0,0:52:19@19/4/2015,220851956 
0,1,-2,-1,-4,-4,-1,0,0,0:52:19@19/4/2015,220851974 
0,-2,-3,-8,-5,5,-2,-2,-4,0:52:19@19/4/2015,220851993 
0,1,3,4,8,-2,-2,-1,0,0:52:20@19/4/2015,220852012 
0,-1,-1,3,-5,1,0,-1,-2,0:52:20@19/4/2015,220852034 
0,1,3,4,3,1,-1,0,-2,0:52:20@19/4/2015,220852057 
0,-1,0,-1,-16,-6,-2,0,0,0:52:20@19/4/2015,220852067 
0,1,-1,4,11,-2,-4,-3,-1,0:52:20@19/4/2015,220852076 
0,1,-1,4,11,-2,-4,-3,-1,0:52:20@19/4/2015,220852086 
0,-3,-3,-1,-4,-2,-3,0,-1,0:52:20@19/4/2015,220852096 
0,0,0,-3,-3,4,2,-3,-2,0:52:20@19/4/2015,220852107 
0,-1,1,1,2,0,1,-1,-1,0:52:20@19/4/2015,220852118 
0,-3,-8,-7,1,0,1,0,-2,0:52:20@19/4/2015,220852130 
0,0,0,2,4,2,-1,-6,-3,0:52:20@19/4/2015,220852142 
0,0,0,-5,-3,-11,0,-1,-1,0:52:20@19/4/2015,220852155 
0,-2,-3,0,-14,-1,-4,-1,0,0:52:20@19/4/2015,220852168 
0,-5,-4,-5,1,-2,2,0,-4,0:52:20@19/4/2015,220852181 
0,1,0,1,9,14,4,0,0,0:52:20@19/4/2015,220852194 
0,-1,-2,-5,-4,4,-1,-10,-1,0:52:20@19/4/2015,220852208 
0,-3,-5,-2,-1,-8,-2,-5,-1,0:52:20@19/4/2015,220852223 
0,-1,1,3,-11,-1,7,5,0,0:52:20@19/4/2015,220852238 
0,0,1,1,-1,-1,-4,0,-1,0:52:20@19/4/2015,220852253 
0,-2,-2,4,-1,-1,-7,-3,-1,0:52:20@19/4/2015,220852269 
0,-6,-6,-4,2,2,-8,-2,-4,0:52:20@19/4/2015,220852286 
0,0,-2,1,7,0,3,-1,-1,0:52:20@19/4/2015,220852303 
0,1,1,1,-7,8,-8,-5,-1,0:52:20@19/4/2015,220852320 
0,-4,-3,-8,2,0,0,-3,-2,0:52:20@19/4/2015,220852338 
0,0,-1,0,3,-7,-3,-2,-2,0:52:20@19/4/2015,220852356 
0,-1,-1,-7,-3,-2,-3,-4,-2,0:52:20@19/4/2015,220852375 
0,0,-2,5,1,-7,-4,-5,-1,0:52:20@19/4/2015,220852395 
0,-2,-1,3,2,7,3,-3,1,0:52:20@19/4/2015,220852415 
0,-6,-9,-1,6,-1,-2,-4,-5,0:52:20@19/4/2015,220852424 
0,-6,-9,-1,6,-1,-2,-4,-5,0:52:20@19/4/2015,220852433 
0,-1,-1,-1,-14,3,2,0,0,0:52:20@19/4/2015,220852442 
0,0,2,2,6,5,1,3,-2,0:52:20@19/4/2015,220852452 
0,-3,-4,-6,-16,0,-3,-2,-1,0:52:20@19/4/2015,220852462 
0,-1,-3,-5,-12,-12,-5,1,1,0:52:20@19/4/2015,220852473 
0,-1,1,2,2,-1,1,-2,-1,0:52:20@19/4/2015,220852484 
0,-1,1,1,3,-2,-2,9,-1,0:52:20@19/4/2015,220852496 
0,0,-3,-3,-9,2,0,-2,-1,0:52:20@19/4/2015,220852508 
0,1,0,-6,-6,-16,-8,-4,1,0:52:20@19/4/2015,220852520 
0,-2,-3,0,0,-5,-4,-4,-2,0:52:20@19/4/2015,220852533 
0,-4,-6,-7,-1,-3,0,-4,-3,0:52:20@19/4/2015,220852546 
0,-3,-2,-5,5,-1,-3,-5,-1,0:52:20@19/4/2015,220852560 
0,-2,-2,1,-6,5,1,0,1,0:52:20@19/4/2015,220852576 
0,-1,0,0,2,5,0,-1,1,0:52:20@19/4/2015,220852591 
0,-3,-2,1,-4,5,-1,-2,-2,0:52:20@19/4/2015,220852607 
0,-1,1,3,7,2,1,-6,-1,0:52:20@19/4/2015,220852623 
0,2,3,-1,4,0,1,-1,2,0:52:20@19/4/2015,220852639 
0,-1,-1,-9,-16,0,13,10,-5,0:52:20@19/4/2015,220852656 
0,-1,-1,2,7,3,1,1,1,0:52:20@19/4/2015,220852673 
0,-5,-8,-10,3,-11,-9,-5,-3,0:52:20@19/4/2015,220852691 
0,2,2,3,0,-1,3,2,-2,0:52:20@19/4/2015,220852710 
0,-2,-1,-4,-1,2,-4,0,-2,0:52:20@19/4/2015,220852729 
0,-1,-7,-4,-3,-4,-4,-2,-3,0:52:20@19/4/2015,220852749 
0,1,1,-3,-10,-14,-2,1,1,0:52:20@19/4/2015,220852769 
0,-4,-2,2,36,5,0,-2,-1,0:52:20@19/4/2015,220852778 
0,-2,-3,-8,-2,-4,0,0,-2,0:52:20@19/4/2015,220852787 
0,0,-1,0,-7,-7,-4,-4,-2,0:52:20@19/4/2015,220852796 
0,-5,-3,-1,2,1,-1,-2,-2,0:52:20@19/4/2015,220852806 
0,1,0,2,-11,-13,7,0,0,0:52:20@19/4/2015,220852816 
0,1,0,2,-11,-13,7,0,0,0:52:20@19/4/2015,220852827 
0,-1,-2,-1,6,2,-2,-1,-2,0:52:20@19/4/2015,220852838 
0,-1,3,3,-2,2,2,-1,-1,0:52:20@19/4/2015,220852850 
0,-2,-5,-1,2,-2,2,-1,-1,0:52:20@19/4/2015,220852862 
0,-4,-2,0,3,-3,-3,-1,-1,0:52:20@19/4/2015,220852875 
0,-4,-2,0,3,-3,-3,-1,-1,0:52:20@19/4/2015,220852888 
0,-1,5,4,8,4,-2,-2,0,0:52:20@19/4/2015,220852902 
0,0,1,4,-2,-2,0,-2,1,0:52:20@19/4/2015,220852916 
0,3,5,7,1,0,0,0,1,0:52:20@19/4/2015,220852930 
0,0,0,-1,2,-5,-1,-2,2,0:52:20@19/4/2015,220852945 
0,-1,-3,2,0,22,1,-2,-2,0:52:20@19/4/2015,220852960 
0,-1,-1,-4,11,-2,-1,-3,1,0:52:20@19/4/2015,220852976 
0,-3,-6,-7,-5,-3,9,2,1,0:52:20@19/4/2015,220852992 
0,0,-1,0,-10,-1,-4,-2,0,0:52:21@19/4/2015,220853009 
0,1,-3,-1,-1,-3,-1,-2,1,0:52:21@19/4/2015,220853027 
0,-1,0,-3,2,1,-6,-1,-2,0:52:21@19/4/2015,220853045 
0,-1,-2,1,-9,6,2,1,-1,0:52:21@19/4/2015,220853063 
0,-2,-2,-5,3,-2,1,1,-1,0:52:21@19/4/2015,220853082 
0,-1,0,2,1,4,-3,-4,0,0:52:21@19/4/2015,220853101 
0,-2,-2,0,5,-8,2,2,1,0:52:21@19/4/2015,220853121 
0,-3,-3,-9,0,1,-2,-2,-2,0:52:21@19/4/2015,220853130 
0,-4,-5,-5,0,-1,-2,-1,0,0:52:21@19/4/2015,220853139 
0,0,5,1,-22,-2,-1,-1,0,0:52:21@19/4/2015,220853148 
0,0,5,1,-22,-2,-1,-1,0,0:52:21@19/4/2015,220853157 
0,-3,-4,-3,20,19,4,-1,-3,0:52:21@19/4/2015,220853167 
0,1,0,1,-5,-7,-1,-1,-1,0:52:21@19/4/2015,220853177 
0,1,0,1,-5,-7,-1,-1,-1,0:52:21@19/4/2015,220853188 
0,-1,-1,-3,-4,13,2,-2,-3,0:52:21@19/4/2015,220853200 
0,0,-2,0,3,-7,2,4,3,0:52:21@19/4/2015,220853212 
0,0,3,-1,10,-5,-8,1,-4,0:52:21@19/4/2015,220853225 
0,-1,-1,0,-3,-10,2,-2,-1,0:52:21@19/4/2015,220853238 
0,-3,-2,1,2,-2,-2,-2,-2,0:52:21@19/4/2015,220853252 
0,-4,-2,-2,-9,-3,-3,-3,-1,0:52:21@19/4/2015,220853266 
0,-3,-5,0,1,-9,-4,-2,1,0:52:21@19/4/2015,220853281 
0,-4,-5,-4,-15,-13,-3,-1,0,0:52:21@19/4/2015,220853296 
0,-1,-1,-5,10,11,0,-2,-5,0:52:21@19/4/2015,220853311 
0,-3,-3,-7,-15,-6,-3,0,0,0:52:21@19/4/2015,220853327 
0,3,1,2,-2,1,0,1,1,0:52:21@19/4/2015,220853344 
0,-3,-3,2,-4,-2,-1,-1,-2,0:52:21@19/4/2015,220853361 
0,1,2,-3,4,0,0,-1,0,0:52:21@19/4/2015,220853379 
0,-2,-3,2,-8,5,1,1,1,0:52:21@19/4/2015,220853397 
0,-1,-2,-1,2,22,-2,-1,0,0:52:21@19/4/2015,220853415 
0,1,1,1,-1,-2,1,-2,-1,0:52:21@19/4/2015,220853434 
0,-1,-2,-5,-16,-3,-2,-2,-1,0:52:21@19/4/2015,220853454 
0,-1,0,-3,1,-4,-2,1,-1,0:52:21@19/4/2015,220853474 
0,-4,-3,-2,1,13,1,-1,-3,0:52:21@19/4/2015,220853483 
0,0,-1,3,-3,-3,-1,-2,-1,0:52:21@19/4/2015,220853492 
0,2,1,-1,-10,-3,1,-1,-1,0:52:21@19/4/2015,220853501 
0,1,-1,1,8,0,-5,-4,0,0:52:21@19/4/2015,220853511 
0,0,2,-4,-2,-1,0,0,-1,0:52:21@19/4/2015,220853521 
0,-1,1,1,2,0,0,-3,0,0:52:21@19/4/2015,220853532 
0,-1,1,1,2,0,0,-3,0,0:52:21@19/4/2015,220853543 
0,-4,-5,-4,2,-1,3,1,-4,0:52:21@19/4/2015,220853555 
0,-1,-2,-5,-9,-1,2,2,1,0:52:21@19/4/2015,220853567 
0,-1,2,0,-13,1,2,0,0,0:52:21@19/4/2015,220853579 
0,-1,-3,0,2,-2,-1,0,-1,0:52:21@19/4/2015,220853592 
0,1,5,7,14,2,-1,-2,-1,0:52:21@19/4/2015,220853605 
0,-1,2,1,8,-2,4,0,-2,0:52:21@19/4/2015,220853619 
0,0,-1,0,9,2,0,-2,-2,0:52:21@19/4/2015,220853633 
0,-1,-2,1,-10,20,1,-2,0,0:52:21@19/4/2015,220853648 
0,-1,-2,1,-10,20,1,-2,0,0:52:21@19/4/2015,220853663 
0,-1,2,2,-3,-6,-3,-4,0,0:52:21@19/4/2015,220853679 
0,-1,-1,3,-1,-3,-3,-3,-3,0:52:21@19/4/2015,220853696 
0,-4,-3,-4,-2,-3,3,1,-4,0:52:21@19/4/2015,220853713 
0,-2,-4,-4,-9,-1,-1,1,-1,0:52:21@19/4/2015,220853730 
0,-1,1,2,-6,-8,-3,0,-1,0:52:21@19/4/2015,220853748 
0,2,0,-2,-7,-4,0,-1,-1,0:52:21@19/4/2015,220853766 
0,-1,-1,-5,-6,-2,-1,0,0,0:52:21@19/4/2015,220853785 
0,-2,-5,-4,-4,19,2,2,-1,0:52:21@19/4/2015,220853804 
0,-3,-4,-3,-1,-4,-4,-3,-3,0:52:21@19/4/2015,220853824 
0,0,1,0,-8,-11,-1,-11,1,0:52:21@19/4/2015,220853833 
0,-3,1,-2,8,-4,-10,-1,-2,0:52:21@19/4/2015,220853855 
0,-1,-3,-4,-10,0,-1,-1,-1,0:52:21@19/4/2015,220853864 
0,0,-2,-1,-1,4,2,-2,0,0:52:21@19/4/2015,220853874 
0,-3,-4,-3,-11,25,0,2,-3,0:52:21@19/4/2015,220853884 
0,0,-3,-1,16,3,1,0,-2,0:52:21@19/4/2015,220853894 
0,-2,-3,-8,1,-13,-2,-3,-3,0:52:21@19/4/2015,220853905 
0,-2,1,0,-10,-4,0,0,-1,0:52:21@19/4/2015,220853917 
0,-2,-1,0,-3,-9,-7,-4,-1,0:52:21@19/4/2015,220853929 
0,-1,1,1,-8,-1,-5,-3,-2,0:52:21@19/4/2015,220853942 
0,-2,-5,-4,1,6,0,2,0,0:52:21@19/4/2015,220853955 
0,-1,-1,-1,-9,-7,1,1,1,0:52:21@19/4/2015,220853969 
0,0,3,3,0,-11,0,-3,-3,0:52:21@19/4/2015,220853983 
0,-1,-2,-4,6,1,-6,3,-2,0:52:21@19/4/2015,220853998 
0,-2,-2,-2,-2,1,-2,1,1,0:52:22@19/4/2015,220854013 
0,2,3,5,-1,5,-3,-3,-1,0:52:22@19/4/2015,220854030 
0,0,1,7,-3,3,2,-3,-3,0:52:22@19/4/2015,220854046 
0,-1,-2,-1,-4,2,4,3,1,0:52:22@19/4/2015,220854063 
0,-2,-1,-3,1,-5,0,-2,-4,0:52:22@19/4/2015,220854082 
0,-1,3,2,4,-3,-2,-1,-3,0:52:22@19/4/2015,220854100 
0,0,-1,-2,-19,-1,0,-2,-1,0:52:22@19/4/2015,220854119 
0,2,1,6,3,1,0,0,1,0:52:22@19/4/2015,220854139 
0,1,-4,-4,18,4,0,-7,-3,0:52:22@19/4/2015,220854159 
0,-2,1,0,-4,-1,-1,0,0,0:52:22@19/4/2015,220854179 
0,-4,-5,-2,1,2,1,-2,-2,0:52:22@19/4/2015,220854199 
0,-2,-3,-3,-17,-2,-1,-2,0,0:52:22@19/4/2015,220854208 
0,-1,2,2,4,-10,-2,2,0,0:52:22@19/4/2015,220854217 
0,-1,-4,-1,-2,3,0,0,0,0:52:22@19/4/2015,220854226 
0,0,0,-4,-6,-1,0,13,-4,0:52:22@19/4/2015,220854236 
0,-1,0,1,14,0,-2,4,0,0:52:22@19/4/2015,220854247 
0,-2,-5,-10,-19,0,-2,-7,0,0:52:22@19/4/2015,220854258 
0,2,4,-1,-14,-1,0,-3,-2,0:52:22@19/4/2015,220854269 
0,-3,-1,-4,-10,-3,-4,-3,-3,0:52:22@19/4/2015,220854281 
0,-1,3,7,7,1,3,-2,0,0:52:22@19/4/2015,220854293 
0,-1,2,-3,-19,-11,-3,-2,-2,0:52:22@19/4/2015,220854306 
0,-3,-2,-1,-3,-1,-2,-3,0,0:52:22@19/4/2015,220854319 
0,-2,-2,-5,3,3,3,0,-1,0:52:22@19/4/2015,220854333 
0,-4,-7,-6,-3,-2,-4,-4,-2,0:52:22@19/4/2015,220854347 
0,-3,-1,0,1,5,0,13,-2,0:52:22@19/4/2015,220854361 
0,0,0,-1,8,-4,-7,-4,-1,0:52:22@19/4/2015,220854376 
0,-1,-5,-2,-3,-2,-2,-4,1,0:52:22@19/4/2015,220854392 
0,-1,1,1,0,-1,0,-4,-2,0:52:22@19/4/2015,220854408 
0,-2,-2,-1,0,1,-2,2,0,0:52:22@19/4/2015,220854425 
0,-3,-4,-4,-19,2,-3,-4,-1,0:52:22@19/4/2015,220854442 
0,-3,-1,0,0,-5,-1,2,-1,0:52:22@19/4/2015,220854460 
0,2,1,5,42,5,0,-1,0,0:52:22@19/4/2015,220854479 
0,-1,1,2,8,2,1,1,0,0:52:22@19/4/2015,220854497 
0,-1,-1,-1,-7,-1,3,-4,-1,0:52:22@19/4/2015,220854516 
0,0,-1,-3,1,2,-3,-4,-2,0:52:22@19/4/2015,220854535 
0,0,0,0,0,4,-3,-2,-2,0:52:22@19/4/2015,220854555 
0,-1,2,-4,-4,-1,-4,8,1,0:52:22@19/4/2015,220854564 
0,-3,-2,0,33,3,-4,1,-2,0:52:22@19/4/2015,220854573 
0,-3,-2,0,33,3,-4,1,-2,0:52:22@19/4/2015,220854582 
0,-1,-4,-4,7,-2,-1,-10,0,0:52:22@19/4/2015,220854592 
0,-5,-7,-1,-9,-3,-2,-5,-2,0:52:22@19/4/2015,220854602 
0,-5,-7,-1,-9,-3,-2,-5,-2,0:52:22@19/4/2015,220854613 
0,-1,-1,-2,-5,-1,3,-1,-2,0:52:22@19/4/2015,220854624 
0,-1,-1,-2,-7,-1,1,13,1,0:52:22@19/4/2015,220854636 
0,-1,1,2,2,4,1,-6,-2,0:52:22@19/4/2015,220854648 
0,1,2,-5,-14,-9,-2,-3,1,0:52:22@19/4/2015,220854660 
0,-1,0,3,33,9,-1,1,-1,0:52:22@19/4/2015,220854673 
0,3,4,1,-17,-5,-1,-6,-1,0:52:22@19/4/2015,220854687 
0,-2,-6,-2,-2,-1,2,-1,-2,0:52:22@19/4/2015,220854701 
0,0,0,-1,0,0,-3,6,-3,0:52:22@19/4/2015,220854716 
0,-1,-1,-2,-20,-8,-2,-2,-1,0:52:22@19/4/2015,220854731 
0,-2,2,0,3,5,-4,13,6,0:52:22@19/4/2015,220854746 
0,-5,-2,1,16,2,-2,16,-12,0:52:22@19/4/2015,220854762 
0,-3,-2,-4,-10,-4,-4,-16,-2,0:52:22@19/4/2015,220854778 
0,2,1,2,12,-1,1,-9,0,0:52:22@19/4/2015,220854795 
0,-2,-3,-4,-6,-7,-4,-3,1,0:52:22@19/4/2015,220854813 
0,-2,-1,4,2,-2,-3,-3,-2,0:52:22@19/4/2015,220854831 
0,-3,-5,-3,14,-2,-2,-2,-3,0:52:22@19/4/2015,220854850 
0,0,-3,-1,-14,1,-3,-6,0,0:52:22@19/4/2015,220854872 
0,2,1,-1,2,2,1,2,0,0:52:22@19/4/2015,220854892 
0,1,1,0,-12,-11,-7,-5,0,0:52:22@19/4/2015,220854912 
0,0,-2,-4,1,6,0,-2,0,0:52:22@19/4/2015,220854921 
0,1,1,-2,-4,-14,-3,1,3,0:52:22@19/4/2015,220854930 
0,1,1,-2,-4,-14,-3,1,3,0:52:22@19/4/2015,220854939 
0,-4,-4,-2,-10,-3,-1,-3,-5,0:52:22@19/4/2015,220854949 
0,-2,2,0,13,5,-1,4,-3,0:52:22@19/4/2015,220854960 
0,-1,-4,-2,37,7,5,1,2,0:52:22@19/4/2015,220854971 
0,-1,0,0,-13,-6,-3,7,-3,0:52:22@19/4/2015,220854982 
0,-2,-4,-2,13,8,-3,-16,-2,0:52:22@19/4/2015,220854994 
0,-2,-4,-2,13,8,-3,-16,-2,0:52:23@19/4/2015,220855006 
0,3,1,3,-2,1,2,5,0,0:52:23@19/4/2015,220855019 
0,1,-1,-3,-10,-7,-7,-5,4,0:52:23@19/4/2015,220855032 
0,-4,-2,-5,-21,-11,-2,6,0,0:52:23@19/4/2015,220855046 
0,-4,-2,-3,-10,-1,-2,-3,-6,0:52:23@19/4/2015,220855060 
0,-1,1,2,-1,-7,-4,3,-1,0:52:23@19/4/2015,220855074 
0,0,0,0,11,0,3,-4,-1,0:52:23@19/4/2015,220855089 
0,-2,-2,-1,29,4,-7,-1,-2,0:52:23@19/4/2015,220855105 
0,2,-1,-4,1,2,5,2,2,0:52:23@19/4/2015,220855121 
0,-1,1,2,-2,3,-6,-4,1,0:52:23@19/4/2015,220855138 
0,-1,-3,-4,-13,-8,-3,-9,-1,0:52:23@19/4/2015,220855155 
0,-1,-1,-2,6,2,6,1,-2,0:52:23@19/4/2015,220855173 
0,-3,-1,-1,-22,-5,0,2,-1,0:52:23@19/4/2015,220855191 
0,1,-1,0,-12,-4,-3,27,-4,0:52:23@19/4/2015,220855209 
0,-1,-5,-5,-5,9,1,4,-3,0:52:23@19/4/2015,220855228 
0,-3,0,-3,-11,-8,-1,-7,-5,0:52:23@19/4/2015,220855247 
0,-1,-3,-4,10,0,-1,-4,0,0:52:23@19/4/2015,220855267 
0,-1,-1,-1,-28,-17,-3,-5,-1,0:52:23@19/4/2015,220855275 
0,-3,-3,-5,10,2,2,-4,-1,0:52:23@19/4/2015,220855284 
0,0,-1,-4,-8,2,-6,15,0,0:52:23@19/4/2015,220855293 
0,0,-1,-4,-8,2,-6,15,0,0:52:23@19/4/2015,220855303 
0,-2,0,-2,15,4,1,-6,-4,0:52:23@19/4/2015,220855313 
0,0,0,-1,-21,-2,1,-20,-6,0:52:23@19/4/2015,220855323 
0,0,0,-1,-21,-2,1,-20,-6,0:52:23@19/4/2015,220855334 
0,-1,-3,-2,-4,2,-5,-19,5,0:52:23@19/4/2015,220855346 
0,-2,-2,-5,0,3,0,-10,-16,0:52:23@19/4/2015,220855358 
0,1,0,1,-12,-7,-3,1,12,0:52:23@19/4/2015,220855371 
0,0,-1,-2,-8,-4,-5,-8,-4,0:52:23@19/4/2015,220855385 
0,-4,-4,2,19,4,-2,-5,-2,0:52:23@19/4/2015,220855398 
0,1,2,2,-22,-7,-6,14,-2,0:52:23@19/4/2015,220855412 
0,-1,-1,-2,6,-2,4,-2,-1,0:52:23@19/4/2015,220855427 
0,-1,-2,-1,2,0,-2,-2,1,0:52:23@19/4/2015,220855442 
0,-2,-3,-2,-10,-10,-1,-4,-2,0:52:23@19/4/2015,220855457 
0,-2,-2,-3,-7,-8,-1,-5,-6,0:52:23@19/4/2015,220855474 
0,-1,0,-2,-4,-1,-4,-5,-3,0:52:23@19/4/2015,220855490 
0,0,-2,-8,-16,-2,-2,-1,1,0:52:23@19/4/2015,220855507 
0,-1,3,1,-12,-10,-2,-5,-3,0:52:23@19/4/2015,220855525 
0,-1,-2,-3,2,4,-4,-1,1,0:52:23@19/4/2015,220855543 
0,-1,-4,-1,4,-6,-2,0,-1,0:52:23@19/4/2015,220855561 
0,0,4,7,-1,-4,-3,1,3,0:52:23@19/4/2015,220855580 
