id,#0,#1,#2,#3,#4,#5,#6,#7,time,millisecond,diff
-1,0,0,0,0,0,0,0,0,17:39:18@14/4/2015,897846369,0
-1,0,0,0,0,0,0,0,0,17:39:18@14/4/2015,897846370,1
-1,0,0,0,0,0,0,0,0,17:39:18@14/4/2015,897846371,2
-1,0,0,0,0,0,0,0,0,17:39:18@14/4/2015,897846372,3
-1,0,0,0,0,0,0,0,0,17:39:18@14/4/2015,897846373,4
-1,0,0,0,0,0,0,0,0,17:39:18@14/4/2015,897846374,5
-1,0,0,0,0,0,0,0,0,17:39:18@14/4/2015,897846375,6
-1,0,0,0,0,0,0,0,0,17:39:18@14/4/2015,897846376,7
-1,0,0,0,0,0,0,0,0,17:39:18@14/4/2015,897846377,8
-1,0,0,0,0,0,0,0,0,17:39:18@14/4/2015,897846378,9
-1,0,0,0,0,0,0,0,0,17:39:18@14/4/2015,897846379,10
-1,0,0,0,0,0,0,0,0,17:39:18@14/4/2015,897846380,11
-1,0,0,0,0,0,0,0,0,17:39:18@14/4/2015,897846381,12
-1,0,0,0,0,0,0,0,0,17:39:18@14/4/2015,897846382,13
-1,0,0,0,0,0,0,0,0,17:39:18@14/4/2015,897846383,14
-1,0,0,0,0,0,0,0,0,17:39:18@14/4/2015,897846384,15
-1,0,0,0,0,0,0,0,0,17:39:18@14/4/2015,897846385,16
-1,0,0,0,0,0,0,0,0,17:39:18@14/4/2015,897846386,17
-1,0,0,0,0,0,0,0,0,17:39:18@14/4/2015,897846387,18
-1,0,0,0,0,0,0,0,0,17:39:18@14/4/2015,897846388,19
-1,0,0,0,0,0,0,0,0,17:39:18@14/4/2015,897846389,20
-1,0,0,0,0,0,0,0,0,17:39:18@14/4/2015,897846390,21
-1,0,0,0,0,0,0,0,0,17:39:18@14/4/2015,897846391,22
-1,0,0,0,0,0,0,0,0,17:39:18@14/4/2015,897846392,23
-1,0,0,0,0,0,0,0,0,17:39:18@14/4/2015,897846393,24
-1,0,0,0,0,0,0,0,0,17:39:18@14/4/2015,897846394,25
-1,0,0,0,0,0,0,0,0,17:39:18@14/4/2015,897846395,26
-1,0,0,0,0,0,0,0,0,17:39:18@14/4/2015,897846396,27
-1,0,0,0,0,0,0,0,0,17:39:18@14/4/2015,897846397,28
-1,0,0,0,0,0,0,0,0,17:39:18@14/4/2015,897846398,29
-1,0,0,0,0,0,0,0,0,17:39:18@14/4/2015,897846399,30
-1,0,0,0,0,0,0,0,0,17:39:18@14/4/2015,897846400,31
-1,0,0,0,0,0,0,0,0,17:39:18@14/4/2015,897846401,32
-1,0,0,0,0,0,0,0,0,17:39:18@14/4/2015,897846402,33
-1,0,0,0,0,0,0,0,0,17:39:18@14/4/2015,897846403,34
-1,0,0,0,0,0,0,0,0,17:39:18@14/4/2015,897846404,35
-1,0,0,0,0,0,0,0,0,17:39:18@14/4/2015,897846405,36
-1,0,0,0,0,0,0,0,0,17:39:18@14/4/2015,897846406,37
-1,0,0,0,0,0,0,0,0,17:39:18@14/4/2015,897846407,38
-1,0,0,0,0,0,0,0,0,17:39:18@14/4/2015,897846408,39
-1,0,0,0,0,0,0,0,0,17:39:18@14/4/2015,897846409,40
-1,0,0,0,0,0,0,0,0,17:39:18@14/4/2015,897846410,41
-1,0,0,0,0,0,0,0,0,17:39:18@14/4/2015,897846411,42
-1,0,0,0,0,0,0,0,0,17:39:18@14/4/2015,897846412,43
-1,0,0,0,0,0,0,0,0,17:39:18@14/4/2015,897846413,44
-1,0,0,0,0,0,0,0,0,17:39:18@14/4/2015,897846414,45
-1,0,0,0,0,0,0,0,0,17:39:18@14/4/2015,897846415,46
-1,0,0,0,0,0,0,0,0,17:39:18@14/4/2015,897846416,47
-1,0,0,0,0,0,0,0,0,17:39:18@14/4/2015,897846417,48
-1,0,0,0,0,0,0,0,0,17:39:18@14/4/2015,897846418,49
-1,0,0,0,0,0,0,0,0,17:39:18@14/4/2015,897846419,50
-1,0,0,0,0,0,0,0,0,17:39:18@14/4/2015,897846420,51
-1,0,0,0,0,0,0,0,0,17:39:18@14/4/2015,897846421,52
-1,0,0,0,0,0,0,0,0,17:39:18@14/4/2015,897846422,53
-1,0,0,0,0,0,0,0,0,17:39:18@14/4/2015,897846423,54
-1,0,0,0,0,0,0,0,0,17:39:18@14/4/2015,897846424,55
-1,0,0,0,0,0,0,0,0,17:39:18@14/4/2015,897846425,56
-1,0,0,0,0,0,0,0,0,17:39:18@14/4/2015,897846426,57
-1,0,0,0,0,0,0,0,0,17:39:18@14/4/2015,897846427,58
-1,0,0,0,0,0,0,0,0,17:39:18@14/4/2015,897846428,59
-1,0,0,0,0,0,0,0,0,17:39:18@14/4/2015,897846429,60
-1,0,0,0,0,0,0,0,0,17:39:18@14/4/2015,897846430,61
-1,0,0,0,0,0,0,0,0,17:39:18@14/4/2015,897846431,62
-1,0,0,0,0,0,0,0,0,17:39:18@14/4/2015,897846432,63
-1,0,0,0,0,0,0,0,0,17:39:18@14/4/2015,897846433,64
-1,0,0,0,0,0,0,0,0,17:39:18@14/4/2015,897846434,65
-1,0,0,0,0,0,0,0,0,17:39:18@14/4/2015,897846435,66
-1,0,0,0,0,0,0,0,0,17:39:18@14/4/2015,897846436,67
-1,0,0,0,0,0,0,0,0,17:39:18@14/4/2015,897846437,68
-1,0,0,0,0,0,0,0,0,17:39:18@14/4/2015,897846438,69
-1,0,0,0,0,0,0,0,0,17:39:18@14/4/2015,897846439,70
-1,0,0,0,0,0,0,0,0,17:39:18@14/4/2015,897846440,71
-1,0,0,0,0,0,0,0,0,17:39:18@14/4/2015,897846441,72
-1,0,0,0,0,0,0,0,0,17:39:18@14/4/2015,897846442,73
-1,0,0,0,0,0,0,0,0,17:39:18@14/4/2015,897846443,74
-1,0,0,0,0,0,0,0,0,17:39:18@14/4/2015,897846444,75
-1,0,0,0,0,0,0,0,0,17:39:18@14/4/2015,897846445,76
-1,0,0,0,0,0,0,0,0,17:39:18@14/4/2015,897846446,77
-1,0,0,0,0,0,0,0,0,17:39:18@14/4/2015,897846447,78
-1,0,0,0,0,0,0,0,0,17:39:18@14/4/2015,897846448,79
-1,0,0,0,0,0,0,0,0,17:39:18@14/4/2015,897846449,80
-1,0,0,0,0,0,0,0,0,17:39:18@14/4/2015,897846450,81
-1,0,0,0,0,0,0,0,0,17:39:18@14/4/2015,897846451,82
-1,0,0,0,0,0,0,0,0,17:39:18@14/4/2015,897846452,83
-1,0,0,0,0,0,0,0,0,17:39:18@14/4/2015,897846453,84
-1,0,0,0,0,0,0,0,0,17:39:18@14/4/2015,897846454,85
-1,0,0,0,0,0,0,0,0,17:39:18@14/4/2015,897846455,86
-1,0,0,0,0,0,0,0,0,17:39:18@14/4/2015,897846456,87
-1,0,0,0,0,0,0,0,0,17:39:18@14/4/2015,897846457,88
-1,0,0,0,0,0,0,0,0,17:39:18@14/4/2015,897846458,89
-1,0,0,0,0,0,0,0,0,17:39:18@14/4/2015,897846459,90
-1,0,0,0,0,0,0,0,0,17:39:18@14/4/2015,897846460,91
-1,0,0,0,0,0,0,0,0,17:39:18@14/4/2015,897846461,92
-1,0,0,0,0,0,0,0,0,17:39:18@14/4/2015,897846462,93
-1,0,0,0,0,0,0,0,0,17:39:18@14/4/2015,897846463,94
-1,0,0,0,0,0,0,0,0,17:39:18@14/4/2015,897846464,95
-1,0,0,0,0,0,0,0,0,17:39:18@14/4/2015,897846465,96
-1,0,0,0,0,0,0,0,0,17:39:18@14/4/2015,897846466,97
-1,0,0,0,0,0,0,0,0,17:39:18@14/4/2015,897846467,98
-1,0,0,0,0,0,0,0,0,17:39:18@14/4/2015,897846468,99
-1,0,0,0,0,0,0,0,0,17:39:18@14/4/2015,897846469,100
-1,0,0,0,0,0,0,0,0,17:39:18@14/4/2015,897846470,101
-1,0,0,0,0,0,0,0,0,17:39:18@14/4/2015,897846471,102
-1,0,0,0,0,0,0,0,0,17:39:18@14/4/2015,897846472,103
-1,0,0,0,0,0,0,0,0,17:39:18@14/4/2015,897846473,104
-1,0,0,0,0,0,0,0,0,17:39:18@14/4/2015,897846474,105
-1,0,0,0,0,0,0,0,0,17:39:18@14/4/2015,897846475,106
-1,0,0,0,0,0,0,0,0,17:39:18@14/4/2015,897846476,107
-1,0,0,0,0,0,0,0,0,17:39:18@14/4/2015,897846477,108
-1,0,0,0,0,0,0,0,0,17:39:18@14/4/2015,897846478,109
-1,0,0,0,0,0,0,0,0,17:39:18@14/4/2015,897846479,110
-1,0,0,0,0,0,0,0,0,17:39:18@14/4/2015,897846480,111
-1,0,0,0,0,0,0,0,0,17:39:18@14/4/2015,897846481,112
-1,0,0,0,0,0,0,0,0,17:39:18@14/4/2015,897846482,113
-1,0,0,0,0,0,0,0,0,17:39:18@14/4/2015,897846483,114
-1,0,0,0,0,0,0,0,0,17:39:18@14/4/2015,897846484,115
-1,0,0,0,0,0,0,0,0,17:39:18@14/4/2015,897846485,116
-1,0,0,0,0,0,0,0,0,17:39:18@14/4/2015,897846486,117
-1,0,0,0,0,0,0,0,0,17:39:18@14/4/2015,897846487,118
-1,0,0,0,0,0,0,0,0,17:39:18@14/4/2015,897846488,119
-1,0,0,0,0,0,0,0,0,17:39:18@14/4/2015,897846489,120
-1,0,0,0,0,0,0,0,0,17:39:18@14/4/2015,897846490,121
-1,0,0,0,0,0,0,0,0,17:39:18@14/4/2015,897846491,122
-1,0,0,0,0,0,0,0,0,17:39:18@14/4/2015,897846492,123
-1,0,0,0,0,0,0,0,0,17:39:18@14/4/2015,897846493,124
-1,0,0,0,0,0,0,0,0,17:39:18@14/4/2015,897846494,125
-1,0,0,0,0,0,0,0,0,17:39:18@14/4/2015,897846495,126
-1,0,0,0,0,0,0,0,0,17:39:18@14/4/2015,897846496,127
-1,0,0,0,0,0,0,0,0,17:39:18@14/4/2015,897846497,128
-1,0,0,0,0,0,0,0,0,17:39:18@14/4/2015,897846498,129
-1,0,0,0,0,0,0,0,0,17:39:18@14/4/2015,897846499,130
-1,0,0,0,0,0,0,0,0,17:39:18@14/4/2015,897846500,131
-1,0,0,0,0,0,0,0,0,17:39:18@14/4/2015,897846501,132
-1,0,0,0,0,0,0,0,0,17:39:18@14/4/2015,897846502,133
-1,0,0,0,0,0,0,0,0,17:39:18@14/4/2015,897846503,134
-1,0,0,0,0,0,0,0,0,17:39:18@14/4/2015,897846504,135
-1,0,0,0,0,0,0,0,0,17:39:18@14/4/2015,897846505,136
-1,0,0,0,0,0,0,0,0,17:39:18@14/4/2015,897846506,137
-1,-1,0,-4,5,-1,-4,-4,-2,17:39:18@14/4/2015,897846507,138
-1,-1,0,2,-6,0,-1,-1,-1,17:39:18@14/4/2015,897846508,139
-1,-1,0,2,-6,0,-1,-1,-1,17:39:18@14/4/2015,897846509,140
-1,-1,0,2,-6,0,-1,-1,-1,17:39:18@14/4/2015,897846510,141
-1,-1,0,2,-6,0,-1,-1,-1,17:39:18@14/4/2015,897846511,142
-1,-1,0,2,-6,0,-1,-1,-1,17:39:18@14/4/2015,897846512,143
-1,-1,0,2,-6,0,-1,-1,-1,17:39:18@14/4/2015,897846513,144
-1,-1,0,2,-6,0,-1,-1,-1,17:39:18@14/4/2015,897846514,145
-1,-1,0,2,-6,0,-1,-1,-1,17:39:18@14/4/2015,897846515,146
-1,-1,0,2,-6,0,-1,-1,-1,17:39:18@14/4/2015,897846516,147
-1,-1,0,2,-6,0,-1,-1,-1,17:39:18@14/4/2015,897846517,148
-1,-1,0,2,-6,0,-1,-1,-1,17:39:18@14/4/2015,897846518,149
-1,-1,0,2,-6,0,-1,-1,-1,17:39:18@14/4/2015,897846519,150
-1,-1,0,2,-6,0,-1,-1,-1,17:39:18@14/4/2015,897846520,151
-1,-1,0,2,-6,0,-1,-1,-1,17:39:18@14/4/2015,897846521,152
-1,-1,0,2,-6,0,-1,-1,-1,17:39:18@14/4/2015,897846522,153
-1,-1,0,2,-6,0,-1,-1,-1,17:39:18@14/4/2015,897846523,154
-1,-1,-4,-1,14,-3,-3,-2,-2,17:39:18@14/4/2015,897846524,155
-1,-1,-4,-1,14,-3,-3,-2,-2,17:39:18@14/4/2015,897846525,156
-1,-1,-4,-1,14,-3,-3,-2,-2,17:39:18@14/4/2015,897846526,157
-1,-1,-4,-1,14,-3,-3,-2,-2,17:39:18@14/4/2015,897846527,158
-1,-1,-4,-1,14,-3,-3,-2,-2,17:39:18@14/4/2015,897846528,159
-1,-1,-4,-1,14,-3,-3,-2,-2,17:39:18@14/4/2015,897846529,160
-1,-1,-4,-1,14,-3,-3,-2,-2,17:39:18@14/4/2015,897846530,161
-1,-1,-4,-1,14,-3,-3,-2,-2,17:39:18@14/4/2015,897846531,162
-1,1,1,-3,-9,-2,-2,0,-2,17:39:18@14/4/2015,897846532,163
-1,1,1,-3,-9,-2,-2,0,-2,17:39:18@14/4/2015,897846533,164
-1,1,1,-3,-9,-2,-2,0,-2,17:39:18@14/4/2015,897846534,165
-1,1,1,-3,-9,-2,-2,0,-2,17:39:18@14/4/2015,897846535,166
-1,1,1,-3,-9,-2,-2,0,-2,17:39:18@14/4/2015,897846536,167
-1,1,1,-3,-9,-2,-2,0,-2,17:39:18@14/4/2015,897846537,168
-1,1,1,-3,-9,-2,-2,0,-2,17:39:18@14/4/2015,897846538,169
-1,-1,0,-1,-9,-4,0,-3,-1,17:39:18@14/4/2015,897846539,170
-1,-1,0,-1,-9,-4,0,-3,-1,17:39:18@14/4/2015,897846540,171
-1,-1,0,-1,-9,-4,0,-3,-1,17:39:18@14/4/2015,897846541,172
-1,-1,0,-1,-9,-4,0,-3,-1,17:39:18@14/4/2015,897846542,173
-1,-1,0,-1,-9,-4,0,-3,-1,17:39:18@14/4/2015,897846543,174
-1,-1,0,-1,-9,-4,0,-3,-1,17:39:18@14/4/2015,897846544,175
-1,-1,0,-1,-9,-4,0,-3,-1,17:39:18@14/4/2015,897846545,176
-1,-1,0,-1,-9,-4,0,-3,-1,17:39:18@14/4/2015,897846546,177
-1,-1,0,-1,-9,-4,0,-3,-1,17:39:18@14/4/2015,897846547,178
-1,-1,0,-1,-9,-4,0,-3,-1,17:39:18@14/4/2015,897846548,179
-1,-1,0,-1,-9,-4,0,-3,-1,17:39:18@14/4/2015,897846549,180
-1,-1,0,-1,-9,-4,0,-3,-1,17:39:18@14/4/2015,897846550,181
-1,-1,0,-1,-9,-4,0,-3,-1,17:39:18@14/4/2015,897846551,182
-1,-1,0,0,7,0,-2,0,-1,17:39:18@14/4/2015,897846552,183
-1,-1,0,0,7,0,-2,0,-1,17:39:18@14/4/2015,897846553,184
-1,-1,0,0,7,0,-2,0,-1,17:39:18@14/4/2015,897846554,185
-1,-1,0,0,7,0,-2,0,-1,17:39:18@14/4/2015,897846555,186
-1,-1,0,0,7,0,-2,0,-1,17:39:18@14/4/2015,897846556,187
-1,-1,0,0,7,0,-2,0,-1,17:39:18@14/4/2015,897846557,188
-1,-1,0,0,7,0,-2,0,-1,17:39:18@14/4/2015,897846558,189
-1,-1,0,0,7,0,-2,0,-1,17:39:18@14/4/2015,897846559,190
-1,-1,0,0,7,0,-2,0,-1,17:39:18@14/4/2015,897846560,191
-1,-1,0,0,7,0,-2,0,-1,17:39:18@14/4/2015,897846561,192
-1,-1,0,0,7,0,-2,0,-1,17:39:18@14/4/2015,897846562,193
-1,-1,0,0,7,0,-2,0,-1,17:39:18@14/4/2015,897846563,194
-1,-2,-1,-2,-3,1,1,-1,5,17:39:18@14/4/2015,897846564,195
-1,-2,-1,-2,-3,1,1,-1,5,17:39:18@14/4/2015,897846565,196
-1,-2,-1,-2,-3,1,1,-1,5,17:39:18@14/4/2015,897846566,197
-1,-1,0,-1,2,-5,-2,-2,-3,17:39:18@14/4/2015,897846567,198
-1,-3,1,1,-2,-1,0,0,-15,17:39:18@14/4/2015,897846568,199
-1,-3,1,1,-2,-1,0,0,-15,17:39:18@14/4/2015,897846569,200
-1,-3,1,1,-2,-1,0,0,-15,17:39:18@14/4/2015,897846570,201
-1,-3,1,1,-2,-1,0,0,-15,17:39:18@14/4/2015,897846571,202
-1,-3,1,1,-2,-1,0,0,-15,17:39:18@14/4/2015,897846572,203
-1,-3,1,1,-2,-1,0,0,-15,17:39:18@14/4/2015,897846573,204
-1,-3,1,1,-2,-1,0,0,-15,17:39:18@14/4/2015,897846574,205
-1,-3,1,1,-2,-1,0,0,-15,17:39:18@14/4/2015,897846575,206
-1,-3,1,1,-2,-1,0,0,-15,17:39:18@14/4/2015,897846576,207
-1,-3,1,1,-2,-1,0,0,-15,17:39:18@14/4/2015,897846577,208
-1,-3,1,1,-2,-1,0,0,-15,17:39:18@14/4/2015,897846578,209
-1,-3,1,1,-2,-1,0,0,-15,17:39:18@14/4/2015,897846579,210
-1,-3,1,1,-2,-1,0,0,-15,17:39:18@14/4/2015,897846580,211
-1,-3,1,1,-2,-1,0,0,-15,17:39:18@14/4/2015,897846581,212
-1,-3,1,1,-2,-1,0,0,-15,17:39:18@14/4/2015,897846582,213
-1,-3,1,1,-2,-1,0,0,-15,17:39:18@14/4/2015,897846583,214
-1,0,1,0,0,2,-2,-1,-19,17:39:18@14/4/2015,897846584,215
-1,0,1,0,0,2,-2,-1,-19,17:39:18@14/4/2015,897846585,216
-1,0,1,0,0,2,-2,-1,-19,17:39:18@14/4/2015,897846586,217
-1,0,1,0,0,2,-2,-1,-19,17:39:18@14/4/2015,897846587,218
-1,0,1,0,0,2,-2,-1,-19,17:39:18@14/4/2015,897846588,219
-1,0,1,0,0,2,-2,-1,-19,17:39:18@14/4/2015,897846589,220
-1,0,1,0,0,2,-2,-1,-19,17:39:18@14/4/2015,897846590,221
-1,0,1,0,0,2,-2,-1,-19,17:39:18@14/4/2015,897846591,222
-1,2,-1,-2,-5,-3,0,0,6,17:39:18@14/4/2015,897846592,223
-1,4,-3,-2,-3,-1,-2,-1,6,17:39:18@14/4/2015,897846593,224
-1,4,-3,-2,-3,-1,-2,-1,6,17:39:18@14/4/2015,897846594,225
-1,4,-3,-2,-3,-1,-2,-1,6,17:39:18@14/4/2015,897846595,226
-1,4,-3,-2,-3,-1,-2,-1,6,17:39:18@14/4/2015,897846596,227
-1,4,-3,-2,-3,-1,-2,-1,6,17:39:18@14/4/2015,897846597,228
-1,4,-3,-2,-3,-1,-2,-1,6,17:39:18@14/4/2015,897846598,229
-1,-6,-1,-2,-3,0,0,-1,3,17:39:18@14/4/2015,897846599,230
-1,-6,-1,-2,-3,0,0,-1,3,17:39:18@14/4/2015,897846600,231
-1,-6,-1,-2,-3,0,0,-1,3,17:39:18@14/4/2015,897846601,232
-1,-6,-1,-2,-3,0,0,-1,3,17:39:18@14/4/2015,897846602,233
-1,-6,-1,-2,-3,0,0,-1,3,17:39:18@14/4/2015,897846603,234
-1,-6,-1,-2,-3,0,0,-1,3,17:39:18@14/4/2015,897846604,235
-1,-6,-1,-2,-3,0,0,-1,3,17:39:18@14/4/2015,897846605,236
-1,-6,-1,-2,-3,0,0,-1,3,17:39:18@14/4/2015,897846606,237
-1,-6,-1,-2,-3,0,0,-1,3,17:39:18@14/4/2015,897846607,238
-1,-6,-1,-2,-3,0,0,-1,3,17:39:18@14/4/2015,897846608,239
-1,-6,-1,-2,-3,0,0,-1,3,17:39:18@14/4/2015,897846609,240
-1,-6,-1,-2,-3,0,0,-1,3,17:39:18@14/4/2015,897846610,241
-1,-6,-1,-2,-3,0,0,-1,3,17:39:18@14/4/2015,897846611,242
-1,-5,-6,-6,-10,-1,-1,-1,0,17:39:18@14/4/2015,897846612,243
-1,-14,-3,-2,1,-1,0,-3,-1,17:39:18@14/4/2015,897846613,244
-1,-14,-3,-2,1,-1,0,-3,-1,17:39:18@14/4/2015,897846614,245
-1,-14,-3,-2,1,-1,0,-3,-1,17:39:18@14/4/2015,897846615,246
-1,-14,-3,-2,1,-1,0,-3,-1,17:39:18@14/4/2015,897846616,247
-1,-14,-3,-2,1,-1,0,-3,-1,17:39:18@14/4/2015,897846617,248
-1,-14,-3,-2,1,-1,0,-3,-1,17:39:18@14/4/2015,897846618,249
-1,-14,-3,-2,1,-1,0,-3,-1,17:39:18@14/4/2015,897846619,250
-1,-14,-3,-2,1,-1,0,-3,-1,17:39:18@14/4/2015,897846620,251
-1,-14,-3,-2,1,-1,0,-3,-1,17:39:18@14/4/2015,897846621,252
-1,-14,-3,-2,1,-1,0,-3,-1,17:39:18@14/4/2015,897846622,253
-1,18,-2,2,2,1,-5,4,24,17:39:18@14/4/2015,897846623,254
-1,18,-2,2,2,1,-5,4,24,17:39:18@14/4/2015,897846624,255
-1,18,-2,2,2,1,-5,4,24,17:39:18@14/4/2015,897846625,256
-1,18,-2,2,2,1,-5,4,24,17:39:18@14/4/2015,897846626,257
-1,-6,0,-6,-6,-1,-2,-2,0,17:39:18@14/4/2015,897846627,258
-1,-6,0,-6,-6,-1,-2,-2,0,17:39:18@14/4/2015,897846628,259
-1,-6,0,-6,-6,-1,-2,-2,0,17:39:18@14/4/2015,897846629,260
-1,-6,0,-6,-6,-1,-2,-2,0,17:39:18@14/4/2015,897846630,261
-1,-6,0,-6,-6,-1,-2,-2,0,17:39:18@14/4/2015,897846631,262
-1,-6,0,-6,-6,-1,-2,-2,0,17:39:18@14/4/2015,897846632,263
-1,-6,0,-6,-6,-1,-2,-2,0,17:39:18@14/4/2015,897846633,264
-1,-6,0,-6,-6,-1,-2,-2,0,17:39:18@14/4/2015,897846634,265
-1,-6,0,-6,-6,-1,-2,-2,0,17:39:18@14/4/2015,897846635,266
-1,-6,0,-6,-6,-1,-2,-2,0,17:39:18@14/4/2015,897846636,267
-1,-6,0,-6,-6,-1,-2,-2,0,17:39:18@14/4/2015,897846637,268
-1,-6,0,-6,-6,-1,-2,-2,0,17:39:18@14/4/2015,897846638,269
-1,-6,0,-6,-6,-1,-2,-2,0,17:39:18@14/4/2015,897846639,270
-1,-6,0,-6,-6,-1,-2,-2,0,17:39:18@14/4/2015,897846640,271
-1,-6,0,-6,-6,-1,-2,-2,0,17:39:18@14/4/2015,897846641,272
-1,-6,0,-6,-6,-1,-2,-2,0,17:39:18@14/4/2015,897846642,273
-1,-6,0,-6,-6,-1,-2,-2,0,17:39:18@14/4/2015,897846643,274
-1,-2,-1,0,-1,-1,-2,0,-7,17:39:18@14/4/2015,897846644,275
-1,-2,-1,0,-1,-1,-2,0,-7,17:39:18@14/4/2015,897846645,276
-1,-2,-1,0,-1,-1,-2,0,-7,17:39:18@14/4/2015,897846646,277
-1,-2,-1,0,-1,-1,-2,0,-7,17:39:18@14/4/2015,897846647,278
-1,-2,-1,0,-1,-1,-2,0,-7,17:39:18@14/4/2015,897846648,279
-1,-2,-1,0,-1,-1,-2,0,-7,17:39:18@14/4/2015,897846649,280
-1,-4,2,0,4,2,1,1,-4,17:39:18@14/4/2015,897846650,281
-1,-4,2,0,4,2,1,1,-4,17:39:18@14/4/2015,897846651,282
-1,-4,2,0,4,2,1,1,-4,17:39:18@14/4/2015,897846652,283
-1,-4,2,0,4,2,1,1,-4,17:39:18@14/4/2015,897846653,284
-1,-4,2,0,4,2,1,1,-4,17:39:18@14/4/2015,897846654,285
-1,-4,2,0,4,2,1,1,-4,17:39:18@14/4/2015,897846655,286
-1,-4,2,0,4,2,1,1,-4,17:39:18@14/4/2015,897846656,287
-1,-4,2,0,4,2,1,1,-4,17:39:18@14/4/2015,897846657,288
-1,-4,2,0,4,2,1,1,-4,17:39:18@14/4/2015,897846658,289
-1,-2,0,0,0,-1,-2,0,-3,17:39:18@14/4/2015,897846659,290
-1,-2,0,0,0,-1,-2,0,-3,17:39:18@14/4/2015,897846660,291
-1,-2,0,0,0,-1,-2,0,-3,17:39:18@14/4/2015,897846661,292
-1,-2,0,0,0,-1,-2,0,-3,17:39:18@14/4/2015,897846662,293
-1,-2,0,0,0,-1,-2,0,-3,17:39:18@14/4/2015,897846663,294
-1,-2,0,0,0,-1,-2,0,-3,17:39:18@14/4/2015,897846664,295
-1,-2,0,0,0,-1,-2,0,-3,17:39:18@14/4/2015,897846665,296
-1,-2,0,0,0,-1,-2,0,-3,17:39:18@14/4/2015,897846666,297
-1,-2,0,0,0,-1,-2,0,-3,17:39:18@14/4/2015,897846667,298
-1,-2,0,0,0,-1,-2,0,-3,17:39:18@14/4/2015,897846668,299
-1,-2,0,0,0,-1,-2,0,-3,17:39:18@14/4/2015,897846669,300
-1,-2,0,0,0,-1,-2,0,-3,17:39:18@14/4/2015,897846671,302
-1,-5,-4,1,1,-1,-1,-2,4,17:39:18@14/4/2015,897846672,303
-1,-5,-4,1,1,-1,-1,-2,4,17:39:18@14/4/2015,897846673,304
-1,-5,-4,1,1,-1,-1,-2,4,17:39:18@14/4/2015,897846674,305
-1,-5,-4,1,1,-1,-1,-2,4,17:39:18@14/4/2015,897846675,306
-1,-5,-4,1,1,-1,-1,-2,4,17:39:18@14/4/2015,897846676,307
-1,-5,-4,1,1,-1,-1,-2,4,17:39:18@14/4/2015,897846677,308
-1,-5,-4,1,1,-1,-1,-2,4,17:39:18@14/4/2015,897846678,309
-1,-5,-4,1,1,-1,-1,-2,4,17:39:18@14/4/2015,897846679,310
-1,-5,-4,1,1,-1,-1,-2,4,17:39:18@14/4/2015,897846680,311
-1,1,0,1,0,3,3,1,5,17:39:18@14/4/2015,897846681,312
-1,1,0,1,0,3,3,1,5,17:39:18@14/4/2015,897846682,313
-1,1,0,1,0,3,3,1,5,17:39:18@14/4/2015,897846683,314
-1,1,0,1,0,3,3,1,5,17:39:18@14/4/2015,897846684,315
-1,1,0,1,0,3,3,1,5,17:39:18@14/4/2015,897846685,316
-1,1,0,1,0,3,3,1,5,17:39:18@14/4/2015,897846686,317
-1,0,-3,-8,-6,-14,-10,-5,-2,17:39:18@14/4/2015,897846687,318
-1,0,-3,-8,-6,-14,-10,-5,-2,17:39:18@14/4/2015,897846688,319
-1,0,-3,-8,-6,-14,-10,-5,-2,17:39:18@14/4/2015,897846689,320
-1,0,-3,-8,-6,-14,-10,-5,-2,17:39:18@14/4/2015,897846690,321
-1,0,-3,-8,-6,-14,-10,-5,-2,17:39:18@14/4/2015,897846691,322
-1,0,-3,-8,-6,-14,-10,-5,-2,17:39:18@14/4/2015,897846692,323
-1,0,-3,-8,-6,-14,-10,-5,-2,17:39:18@14/4/2015,897846693,324
-1,0,-3,-8,-6,-14,-10,-5,-2,17:39:18@14/4/2015,897846694,325
-1,0,-3,-8,-6,-14,-10,-5,-2,17:39:18@14/4/2015,897846695,326
-1,0,-3,-8,-6,-14,-10,-5,-2,17:39:18@14/4/2015,897846696,327
-1,0,-3,-8,-6,-14,-10,-5,-2,17:39:18@14/4/2015,897846697,328
-1,0,-3,-8,-6,-14,-10,-5,-2,17:39:18@14/4/2015,897846698,329
-1,0,-3,-8,-6,-14,-10,-5,-2,17:39:18@14/4/2015,897846699,330
-1,0,-3,-8,-6,-14,-10,-5,-2,17:39:18@14/4/2015,897846700,331
-1,0,-3,-8,-6,-14,-10,-5,-2,17:39:18@14/4/2015,897846701,332
-1,0,-3,-8,-6,-14,-10,-5,-2,17:39:18@14/4/2015,897846702,333
-1,0,-3,-8,-6,-14,-10,-5,-2,17:39:18@14/4/2015,897846703,334
-1,-1,0,-6,-5,-3,-3,-1,-2,17:39:18@14/4/2015,897846704,335
-1,-1,0,-6,-5,-3,-3,-1,-2,17:39:18@14/4/2015,897846705,336
-1,-1,0,-6,-5,-3,-3,-1,-2,17:39:18@14/4/2015,897846706,337
-1,-1,0,-6,-5,-3,-3,-1,-2,17:39:18@14/4/2015,897846707,338
-1,-1,0,-6,-5,-3,-3,-1,-2,17:39:18@14/4/2015,897846708,339
-1,-1,0,-6,-5,-3,-3,-1,-2,17:39:18@14/4/2015,897846709,340
-1,2,-1,5,0,-3,6,1,-2,17:39:18@14/4/2015,897846710,341
-1,2,-1,5,0,-3,6,1,-2,17:39:18@14/4/2015,897846711,342
-1,2,-1,5,0,-3,6,1,-2,17:39:18@14/4/2015,897846712,343
-1,2,-1,5,0,-3,6,1,-2,17:39:18@14/4/2015,897846713,344
-1,2,-1,5,0,-3,6,1,-2,17:39:18@14/4/2015,897846714,345
-1,2,-1,5,0,-3,6,1,-2,17:39:18@14/4/2015,897846715,346
-1,2,-1,5,0,-3,6,1,-2,17:39:18@14/4/2015,897846716,347
-1,2,-1,5,0,-3,6,1,-2,17:39:18@14/4/2015,897846717,348
-1,2,-1,5,0,-3,6,1,-2,17:39:18@14/4/2015,897846718,349
-1,-3,-5,-5,-3,3,2,-4,2,17:39:18@14/4/2015,897846719,350
-1,-3,-5,-5,-3,3,2,-4,2,17:39:18@14/4/2015,897846721,352
-1,-3,-5,-5,-3,3,2,-4,2,17:39:18@14/4/2015,897846722,353
-1,-3,-5,-5,-3,3,2,-4,2,17:39:18@14/4/2015,897846723,354
-1,-3,-5,-5,-3,3,2,-4,2,17:39:18@14/4/2015,897846724,355
-1,-3,-5,-5,-3,3,2,-4,2,17:39:18@14/4/2015,897846725,356
-1,-3,-5,-5,-3,3,2,-4,2,17:39:18@14/4/2015,897846726,357
-1,-3,-5,-5,-3,3,2,-4,2,17:39:18@14/4/2015,897846727,358
-1,-3,-5,-5,-3,3,2,-4,2,17:39:18@14/4/2015,897846728,359
-1,-3,-5,-5,-3,3,2,-4,2,17:39:18@14/4/2015,897846729,360
-1,-3,-5,-5,-3,3,2,-4,2,17:39:18@14/4/2015,897846730,361
-1,-3,-5,-5,-3,3,2,-4,2,17:39:18@14/4/2015,897846731,362
-1,1,-3,-6,-5,4,11,2,-2,17:39:18@14/4/2015,897846732,363
-1,1,-3,-6,-5,4,11,2,-2,17:39:18@14/4/2015,897846733,364
-1,1,-3,-6,-5,4,11,2,-2,17:39:18@14/4/2015,897846734,365
-1,1,-3,-6,-5,4,11,2,-2,17:39:18@14/4/2015,897846735,366
-1,1,-3,-6,-5,4,11,2,-2,17:39:18@14/4/2015,897846736,367
-1,1,-3,-6,-5,4,11,2,-2,17:39:18@14/4/2015,897846737,368
-1,1,-3,-6,-5,4,11,2,-2,17:39:18@14/4/2015,897846738,369
-1,1,-3,-6,-5,4,11,2,-2,17:39:18@14/4/2015,897846739,370
-1,1,-3,-6,-5,4,11,2,-2,17:39:18@14/4/2015,897846740,371
-1,0,2,0,4,2,-3,-5,-1,17:39:18@14/4/2015,897846741,372
-1,0,2,0,4,2,-3,-5,-1,17:39:18@14/4/2015,897846742,373
-1,0,2,0,4,2,-3,-5,-1,17:39:18@14/4/2015,897846743,374
-1,0,2,0,4,2,-3,-5,-1,17:39:18@14/4/2015,897846744,375
-1,0,2,0,4,2,-3,-5,-1,17:39:18@14/4/2015,897846745,376
-1,0,2,0,4,2,-3,-5,-1,17:39:18@14/4/2015,897846746,377
-1,3,0,12,6,1,-1,-2,-1,17:39:18@14/4/2015,897846747,378
-1,3,0,12,6,1,-1,-2,-1,17:39:18@14/4/2015,897846748,379
-1,3,0,12,6,1,-1,-2,-1,17:39:18@14/4/2015,897846749,380
-1,3,0,12,6,1,-1,-2,-1,17:39:18@14/4/2015,897846750,381
-1,3,0,12,6,1,-1,-2,-1,17:39:18@14/4/2015,897846751,382
-1,3,0,12,6,1,-1,-2,-1,17:39:18@14/4/2015,897846752,383
-1,3,0,12,6,1,-1,-2,-1,17:39:18@14/4/2015,897846753,384
-1,3,0,12,6,1,-1,-2,-1,17:39:18@14/4/2015,897846754,385
-1,3,0,12,6,1,-1,-2,-1,17:39:18@14/4/2015,897846755,386
-1,3,0,12,6,1,-1,-2,-1,17:39:18@14/4/2015,897846756,387
-1,3,0,12,6,1,-1,-2,-1,17:39:18@14/4/2015,897846757,388
-1,3,0,12,6,1,-1,-2,-1,17:39:18@14/4/2015,897846758,389
-1,3,0,12,6,1,-1,-2,-1,17:39:18@14/4/2015,897846759,390
-1,3,0,12,6,1,-1,-2,-1,17:39:18@14/4/2015,897846760,391
-1,3,0,12,6,1,-1,-2,-1,17:39:18@14/4/2015,897846761,392
-1,3,0,12,6,1,-1,-2,-1,17:39:18@14/4/2015,897846762,393
-1,3,0,12,6,1,-1,-2,-1,17:39:18@14/4/2015,897846763,394
-1,-1,-1,-4,0,-8,-5,-2,-2,17:39:18@14/4/2015,897846764,395
-1,-1,-1,-4,0,-8,-5,-2,-2,17:39:18@14/4/2015,897846765,396
-1,-1,-1,-4,0,-8,-5,-2,-2,17:39:18@14/4/2015,897846766,397
-1,-1,-1,-4,0,-8,-5,-2,-2,17:39:18@14/4/2015,897846767,398
-1,-1,-1,-4,0,-8,-5,-2,-2,17:39:18@14/4/2015,897846768,399
-1,-1,-1,-4,0,-8,-5,-2,-2,17:39:18@14/4/2015,897846769,400
-1,0,0,-2,5,-2,-2,2,1,17:39:18@14/4/2015,897846770,401
-1,0,0,-2,5,-2,-2,2,1,17:39:18@14/4/2015,897846771,402
-1,0,0,-2,5,-2,-2,2,1,17:39:18@14/4/2015,897846772,403
-1,0,0,-2,5,-2,-2,2,1,17:39:18@14/4/2015,897846773,404
-1,0,0,-2,5,-2,-2,2,1,17:39:18@14/4/2015,897846774,405
-1,0,0,-2,5,-2,-2,2,1,17:39:18@14/4/2015,897846775,406
-1,0,0,-2,5,-2,-2,2,1,17:39:18@14/4/2015,897846776,407
-1,0,0,-2,5,-2,-2,2,1,17:39:18@14/4/2015,897846777,408
-1,0,0,-2,5,-2,-2,2,1,17:39:18@14/4/2015,897846778,409
-1,-7,-1,-3,-11,-6,-4,-2,-2,17:39:18@14/4/2015,897846779,410
-1,-7,-1,-3,-11,-6,-4,-2,-2,17:39:18@14/4/2015,897846780,411
-1,-7,-1,-3,-11,-6,-4,-2,-2,17:39:18@14/4/2015,897846781,412
-1,-7,-1,-3,-11,-6,-4,-2,-2,17:39:18@14/4/2015,897846782,413
-1,-7,-1,-3,-11,-6,-4,-2,-2,17:39:18@14/4/2015,897846783,414
-1,-7,-1,-3,-11,-6,-4,-2,-2,17:39:18@14/4/2015,897846784,415
-1,-7,-1,-3,-11,-6,-4,-2,-2,17:39:18@14/4/2015,897846785,416
-1,-7,-1,-3,-11,-6,-4,-2,-2,17:39:18@14/4/2015,897846786,417
-1,-7,-1,-3,-11,-6,-4,-2,-2,17:39:18@14/4/2015,897846787,418
-1,-7,-1,-3,-11,-6,-4,-2,-2,17:39:18@14/4/2015,897846788,419
-1,-7,-1,-3,-11,-6,-4,-2,-2,17:39:18@14/4/2015,897846789,420
-1,-7,-1,-3,-11,-6,-4,-2,-2,17:39:18@14/4/2015,897846790,421
-1,-7,-1,-3,-11,-6,-4,-2,-2,17:39:18@14/4/2015,897846791,422
-1,-3,0,1,-4,-4,6,0,-3,17:39:18@14/4/2015,897846792,423
-1,-3,0,1,-4,-4,6,0,-3,17:39:18@14/4/2015,897846793,424
-1,-3,0,1,-4,-4,6,0,-3,17:39:18@14/4/2015,897846794,425
-1,-3,0,1,-4,-4,6,0,-3,17:39:18@14/4/2015,897846795,426
-1,-3,0,1,-4,-4,6,0,-3,17:39:18@14/4/2015,897846796,427
-1,-3,0,1,-4,-4,6,0,-3,17:39:18@14/4/2015,897846797,428
-1,-3,0,1,-4,-4,6,0,-3,17:39:18@14/4/2015,897846798,429
-1,-3,0,1,-4,-4,6,0,-3,17:39:18@14/4/2015,897846799,430
-1,-3,0,1,-4,-4,6,0,-3,17:39:18@14/4/2015,897846800,431
-1,4,-2,0,3,-5,1,0,-4,17:39:18@14/4/2015,897846801,432
-1,4,-2,0,3,-5,1,0,-4,17:39:18@14/4/2015,897846802,433
-1,4,-2,0,3,-5,1,0,-4,17:39:18@14/4/2015,897846803,434
-1,4,-2,0,3,-5,1,0,-4,17:39:18@14/4/2015,897846804,435
-1,4,-2,0,3,-5,1,0,-4,17:39:18@14/4/2015,897846805,436
-1,4,-2,0,3,-5,1,0,-4,17:39:18@14/4/2015,897846806,437
-1,3,0,-1,8,0,-12,-2,7,17:39:18@14/4/2015,897846807,438
-1,3,0,-1,8,0,-12,-2,7,17:39:18@14/4/2015,897846808,439
-1,3,0,-1,8,0,-12,-2,7,17:39:18@14/4/2015,897846809,440
-1,3,0,-1,8,0,-12,-2,7,17:39:18@14/4/2015,897846810,441
-1,3,0,-1,8,0,-12,-2,7,17:39:18@14/4/2015,897846811,442
-1,3,0,-1,8,0,-12,-2,7,17:39:18@14/4/2015,897846812,443
-1,3,0,-1,8,0,-12,-2,7,17:39:18@14/4/2015,897846813,444
-1,3,0,-1,8,0,-12,-2,7,17:39:18@14/4/2015,897846814,445
-1,3,0,-1,8,0,-12,-2,7,17:39:18@14/4/2015,897846815,446
-1,3,0,-1,8,0,-12,-2,7,17:39:18@14/4/2015,897846816,447
-1,3,0,-1,8,0,-12,-2,7,17:39:18@14/4/2015,897846817,448
-1,3,0,-1,8,0,-12,-2,7,17:39:18@14/4/2015,897846818,449
-1,3,0,-1,8,0,-12,-2,7,17:39:18@14/4/2015,897846819,450
-1,3,0,-1,8,0,-12,-2,7,17:39:18@14/4/2015,897846820,451
-1,3,0,-1,8,0,-12,-2,7,17:39:18@14/4/2015,897846821,452
-1,3,0,-1,8,0,-12,-2,7,17:39:18@14/4/2015,897846822,453
-1,3,0,-1,8,0,-12,-2,7,17:39:18@14/4/2015,897846823,454
-1,-4,-6,-3,7,-13,-2,-2,-2,17:39:18@14/4/2015,897846824,455
-1,-4,-6,-3,7,-13,-2,-2,-2,17:39:18@14/4/2015,897846825,456
-1,-4,-6,-3,7,-13,-2,-2,-2,17:39:18@14/4/2015,897846826,457
-1,-4,-6,-3,7,-13,-2,-2,-2,17:39:18@14/4/2015,897846827,458
-1,-4,-6,-3,7,-13,-2,-2,-2,17:39:18@14/4/2015,897846828,459
-1,-4,-6,-3,7,-13,-2,-2,-2,17:39:18@14/4/2015,897846829,460
-1,-1,1,-8,-37,-21,-7,-1,-4,17:39:18@14/4/2015,897846830,461
-1,-1,1,-8,-37,-21,-7,-1,-4,17:39:18@14/4/2015,897846831,462
-1,-1,1,-8,-37,-21,-7,-1,-4,17:39:18@14/4/2015,897846832,463
-1,-1,1,-8,-37,-21,-7,-1,-4,17:39:18@14/4/2015,897846833,464
-1,-1,1,-8,-37,-21,-7,-1,-4,17:39:18@14/4/2015,897846834,465
-1,-1,1,-8,-37,-21,-7,-1,-4,17:39:18@14/4/2015,897846835,466
-1,-1,1,-8,-37,-21,-7,-1,-4,17:39:18@14/4/2015,897846836,467
-1,-1,1,-8,-37,-21,-7,-1,-4,17:39:18@14/4/2015,897846837,468
-1,-1,1,-8,-37,-21,-7,-1,-4,17:39:18@14/4/2015,897846838,469
-1,-5,-1,5,23,20,-2,-2,-3,17:39:18@14/4/2015,897846839,470
-1,-5,-1,5,23,20,-2,-2,-3,17:39:18@14/4/2015,897846840,471
-1,-5,-1,5,23,20,-2,-2,-3,17:39:18@14/4/2015,897846841,472
-1,-5,-1,5,23,20,-2,-2,-3,17:39:18@14/4/2015,897846842,473
-1,-5,-1,5,23,20,-2,-2,-3,17:39:18@14/4/2015,897846843,474
-1,-5,-1,5,23,20,-2,-2,-3,17:39:18@14/4/2015,897846844,475
-1,-5,-1,5,23,20,-2,-2,-3,17:39:18@14/4/2015,897846845,476
-1,-5,-1,5,23,20,-2,-2,-3,17:39:18@14/4/2015,897846846,477
-1,-5,-1,5,23,20,-2,-2,-3,17:39:18@14/4/2015,897846848,479
-1,-5,-1,5,23,20,-2,-2,-3,17:39:18@14/4/2015,897846849,480
-1,-5,-1,5,23,20,-2,-2,-3,17:39:18@14/4/2015,897846850,481
-1,-5,-1,5,23,20,-2,-2,-3,17:39:18@14/4/2015,897846851,482
-1,-7,-4,-5,5,2,2,-3,-4,17:39:18@14/4/2015,897846852,483
-1,-7,-4,-5,5,2,2,-3,-4,17:39:18@14/4/2015,897846853,484
-1,-7,-4,-5,5,2,2,-3,-4,17:39:18@14/4/2015,897846854,485
-1,-7,-4,-5,5,2,2,-3,-4,17:39:18@14/4/2015,897846855,486
-1,-7,-4,-5,5,2,2,-3,-4,17:39:18@14/4/2015,897846856,487
-1,-7,-4,-5,5,2,2,-3,-4,17:39:18@14/4/2015,897846857,488
-1,-7,-4,-5,5,2,2,-3,-4,17:39:18@14/4/2015,897846858,489
-1,-7,-4,-5,5,2,2,-3,-4,17:39:18@14/4/2015,897846859,490
-1,-7,-4,-5,5,2,2,-3,-4,17:39:18@14/4/2015,897846860,491
-1,-7,-4,-5,5,2,2,-3,-4,17:39:18@14/4/2015,897846861,492
-1,-7,-4,-5,5,2,2,-3,-4,17:39:18@14/4/2015,897846862,493
-1,-7,-4,-5,5,2,2,-3,-4,17:39:18@14/4/2015,897846863,494
-1,-7,-4,-5,5,2,2,-3,-4,17:39:18@14/4/2015,897846864,495
-1,-7,-4,-5,5,2,2,-3,-4,17:39:18@14/4/2015,897846865,496
-1,-7,-4,-5,5,2,2,-3,-4,17:39:18@14/4/2015,897846866,497
-1,-7,-4,-5,5,2,2,-3,-4,17:39:18@14/4/2015,897846867,498
-1,4,-1,1,15,29,2,0,-3,17:39:18@14/4/2015,897846868,499
-1,-2,-1,-4,-2,-13,-3,-1,8,17:39:18@14/4/2015,897846869,500
-1,-2,-1,-4,-2,-13,-3,-1,8,17:39:18@14/4/2015,897846870,501
-1,-2,-1,-4,-2,-13,-3,-1,8,17:39:18@14/4/2015,897846871,502
-1,-2,-1,-4,-2,-13,-3,-1,8,17:39:18@14/4/2015,897846872,503
-1,-2,-1,-4,-2,-13,-3,-1,8,17:39:18@14/4/2015,897846873,504
-1,-2,-1,-4,-2,-13,-3,-1,8,17:39:18@14/4/2015,897846874,505
-1,-2,-1,-4,-2,-13,-3,-1,8,17:39:18@14/4/2015,897846875,506
-1,-2,-1,-4,-2,-13,-3,-1,8,17:39:18@14/4/2015,897846876,507
-1,-2,-1,-4,-2,-13,-3,-1,8,17:39:18@14/4/2015,897846877,508
-1,-2,-1,-4,-2,-13,-3,-1,8,17:39:18@14/4/2015,897846878,509
-1,-2,-1,-4,-2,-13,-3,-1,8,17:39:18@14/4/2015,897846879,510
-1,-2,-1,-4,-2,-13,-3,-1,8,17:39:18@14/4/2015,897846880,511
-1,-2,-1,-4,-2,-13,-3,-1,8,17:39:18@14/4/2015,897846881,512
-1,-2,-1,-4,-2,-13,-3,-1,8,17:39:18@14/4/2015,897846882,513
-1,-2,-1,-4,-2,-13,-3,-1,8,17:39:18@14/4/2015,897846883,514
-1,-3,-5,-7,-48,-18,-2,-1,5,17:39:18@14/4/2015,897846884,515
-1,-3,-5,-7,-48,-18,-2,-1,5,17:39:18@14/4/2015,897846885,516
-1,-3,-5,-7,-48,-18,-2,-1,5,17:39:18@14/4/2015,897846886,517
-1,-3,-5,-7,-48,-18,-2,-1,5,17:39:18@14/4/2015,897846887,518
-1,-3,-5,-7,-48,-18,-2,-1,5,17:39:18@14/4/2015,897846888,519
-1,-3,-5,-7,-48,-18,-2,-1,5,17:39:18@14/4/2015,897846889,520
-1,3,-1,1,-10,17,-3,1,-1,17:39:18@14/4/2015,897846890,521
-1,3,-1,1,-10,17,-3,1,-1,17:39:18@14/4/2015,897846891,522
-1,3,-1,1,-10,17,-3,1,-1,17:39:18@14/4/2015,897846892,523
-1,3,-1,1,-10,17,-3,1,-1,17:39:18@14/4/2015,897846893,524
-1,3,-1,1,-10,17,-3,1,-1,17:39:18@14/4/2015,897846894,525
-1,3,-1,1,-10,17,-3,1,-1,17:39:18@14/4/2015,897846895,526
-1,3,-1,1,-10,17,-3,1,-1,17:39:18@14/4/2015,897846896,527
-1,3,-1,1,-10,17,-3,1,-1,17:39:18@14/4/2015,897846897,528
-1,3,-1,1,-10,17,-3,1,-1,17:39:18@14/4/2015,897846898,529
-1,1,4,4,17,-13,-1,-1,0,17:39:18@14/4/2015,897846899,530
-1,1,4,4,17,-13,-1,-1,0,17:39:18@14/4/2015,897846900,531
-1,1,4,4,17,-13,-1,-1,0,17:39:18@14/4/2015,897846901,532
-1,1,4,4,17,-13,-1,-1,0,17:39:18@14/4/2015,897846902,533
-1,1,4,4,17,-13,-1,-1,0,17:39:18@14/4/2015,897846903,534
-1,1,4,4,17,-13,-1,-1,0,17:39:18@14/4/2015,897846904,535
-1,1,4,4,17,-13,-1,-1,0,17:39:18@14/4/2015,897846905,536
-1,1,4,4,17,-13,-1,-1,0,17:39:18@14/4/2015,897846906,537
-1,1,4,4,17,-13,-1,-1,0,17:39:18@14/4/2015,897846907,538
-1,1,4,4,17,-13,-1,-1,0,17:39:18@14/4/2015,897846908,539
-1,1,4,4,17,-13,-1,-1,0,17:39:18@14/4/2015,897846909,540
-1,1,4,4,17,-13,-1,-1,0,17:39:18@14/4/2015,897846910,541
-1,1,4,4,17,-13,-1,-1,0,17:39:18@14/4/2015,897846911,542
-1,-7,-6,-5,0,-10,-4,-3,-12,17:39:18@14/4/2015,897846912,543
-1,-7,-6,-5,0,-10,-4,-3,-12,17:39:18@14/4/2015,897846913,544
-1,-7,-6,-5,0,-10,-4,-3,-12,17:39:18@14/4/2015,897846914,545
-1,-7,-6,-5,0,-10,-4,-3,-12,17:39:18@14/4/2015,897846915,546
-1,-7,-6,-5,0,-10,-4,-3,-12,17:39:18@14/4/2015,897846916,547
-1,-7,-6,-5,0,-10,-4,-3,-12,17:39:18@14/4/2015,897846917,548
-1,-7,-6,-5,0,-10,-4,-3,-12,17:39:18@14/4/2015,897846918,549
-1,-7,-6,-5,0,-10,-4,-3,-12,17:39:18@14/4/2015,897846919,550
-1,-7,-6,-5,0,-10,-4,-3,-12,17:39:18@14/4/2015,897846920,551
-1,-1,-3,-7,-6,-13,-2,-1,-2,17:39:18@14/4/2015,897846921,552
-1,-1,-3,-7,-6,-13,-2,-1,-2,17:39:18@14/4/2015,897846922,553
-1,-1,-3,-7,-6,-13,-2,-1,-2,17:39:18@14/4/2015,897846923,554
-1,-1,-3,-7,-6,-13,-2,-1,-2,17:39:18@14/4/2015,897846924,555
-1,-1,-3,-7,-6,-13,-2,-1,-2,17:39:18@14/4/2015,897846925,556
-1,-1,-3,-7,-6,-13,-2,-1,-2,17:39:18@14/4/2015,897846926,557
-1,-2,-3,-5,-3,-22,-5,-4,-4,17:39:18@14/4/2015,897846927,558
-1,-2,-3,-5,-3,-22,-5,-4,-4,17:39:18@14/4/2015,897846928,559
-1,-2,-3,-5,-3,-22,-5,-4,-4,17:39:18@14/4/2015,897846929,560
-1,-2,-3,-5,-3,-22,-5,-4,-4,17:39:18@14/4/2015,897846930,561
-1,-2,-3,-5,-3,-22,-5,-4,-4,17:39:18@14/4/2015,897846931,562
-1,-2,-3,-5,-3,-22,-5,-4,-4,17:39:18@14/4/2015,897846932,563
-1,-2,-3,-5,-3,-22,-5,-4,-4,17:39:18@14/4/2015,897846933,564
-1,-2,-3,-5,-3,-22,-5,-4,-4,17:39:18@14/4/2015,897846934,565
-1,-2,-3,-5,-3,-22,-5,-4,-4,17:39:18@14/4/2015,897846935,566
-1,-2,-3,-5,-3,-22,-5,-4,-4,17:39:18@14/4/2015,897846936,567
-1,-2,-3,-5,-3,-22,-5,-4,-4,17:39:18@14/4/2015,897846937,568
-1,-2,-3,-5,-3,-22,-5,-4,-4,17:39:18@14/4/2015,897846938,569
-1,-2,-3,-5,-3,-22,-5,-4,-4,17:39:18@14/4/2015,897846939,570
-1,-2,-3,-5,-3,-22,-5,-4,-4,17:39:18@14/4/2015,897846940,571
-1,-2,-3,-5,-3,-22,-5,-4,-4,17:39:18@14/4/2015,897846941,572
-1,-2,-3,-5,-3,-22,-5,-4,-4,17:39:18@14/4/2015,897846942,573
-1,-2,-3,-5,-3,-22,-5,-4,-4,17:39:18@14/4/2015,897846943,574
-1,5,8,6,-6,-14,4,3,3,17:39:18@14/4/2015,897846944,575
-1,5,8,6,-6,-14,4,3,3,17:39:18@14/4/2015,897846945,576
-1,5,8,6,-6,-14,4,3,3,17:39:18@14/4/2015,897846946,577
-1,5,8,6,-6,-14,4,3,3,17:39:18@14/4/2015,897846947,578
-1,5,8,6,-6,-14,4,3,3,17:39:18@14/4/2015,897846948,579
-1,5,8,6,-6,-14,4,3,3,17:39:18@14/4/2015,897846949,580
-1,6,9,25,-13,28,1,7,1,17:39:18@14/4/2015,897846950,581
-1,6,9,25,-13,28,1,7,1,17:39:18@14/4/2015,897846951,582
-1,6,9,25,-13,28,1,7,1,17:39:18@14/4/2015,897846952,583
-1,6,9,25,-13,28,1,7,1,17:39:18@14/4/2015,897846953,584
-1,6,9,25,-13,28,1,7,1,17:39:18@14/4/2015,897846954,585
-1,6,9,25,-13,28,1,7,1,17:39:18@14/4/2015,897846955,586
-1,6,9,25,-13,28,1,7,1,17:39:18@14/4/2015,897846956,587
-1,6,9,25,-13,28,1,7,1,17:39:18@14/4/2015,897846957,588
-1,6,9,25,-13,28,1,7,1,17:39:18@14/4/2015,897846958,589
-1,-3,-1,0,13,-2,-4,-6,1,17:39:18@14/4/2015,897846959,590
-1,-3,-1,0,13,-2,-4,-6,1,17:39:18@14/4/2015,897846960,591
-1,-3,-1,0,13,-2,-4,-6,1,17:39:18@14/4/2015,897846961,592
-1,-3,-1,0,13,-2,-4,-6,1,17:39:18@14/4/2015,897846962,593
-1,-3,-1,0,13,-2,-4,-6,1,17:39:18@14/4/2015,897846963,594
-1,-3,-1,0,13,-2,-4,-6,1,17:39:18@14/4/2015,897846964,595
-1,-3,-1,0,13,-2,-4,-6,1,17:39:18@14/4/2015,897846965,596
-1,-3,-1,0,13,-2,-4,-6,1,17:39:18@14/4/2015,897846966,597
-1,-3,-1,0,13,-2,-4,-6,1,17:39:18@14/4/2015,897846967,598
-1,-3,-1,0,13,-2,-4,-6,1,17:39:18@14/4/2015,897846968,599
-1,-3,-1,0,13,-2,-4,-6,1,17:39:18@14/4/2015,897846969,600
-1,-3,-1,0,13,-2,-4,-6,1,17:39:18@14/4/2015,897846970,601
-1,-3,-1,0,13,-2,-4,-6,1,17:39:18@14/4/2015,897846971,602
-1,3,-6,-9,8,-1,-3,-14,-6,17:39:18@14/4/2015,897846972,603
-1,3,-6,-9,8,-1,-3,-14,-6,17:39:18@14/4/2015,897846973,604
-1,3,-6,-9,8,-1,-3,-14,-6,17:39:18@14/4/2015,897846974,605
-1,3,-6,-9,8,-1,-3,-14,-6,17:39:18@14/4/2015,897846975,606
-1,3,-6,-9,8,-1,-3,-14,-6,17:39:18@14/4/2015,897846976,607
-1,3,-6,-9,8,-1,-3,-14,-6,17:39:18@14/4/2015,897846977,608
-1,3,-6,-9,8,-1,-3,-14,-6,17:39:18@14/4/2015,897846978,609
-1,3,-6,-9,8,-1,-3,-14,-6,17:39:18@14/4/2015,897846979,610
-1,3,-6,-9,8,-1,-3,-14,-6,17:39:18@14/4/2015,897846980,611
-1,-10,-4,-6,-42,-8,-5,0,-6,17:39:18@14/4/2015,897846981,612
-1,-10,-4,-6,-42,-8,-5,0,-6,17:39:18@14/4/2015,897846982,613
-1,-10,-4,-6,-42,-8,-5,0,-6,17:39:18@14/4/2015,897846983,614
-1,-10,-4,-6,-42,-8,-5,0,-6,17:39:18@14/4/2015,897846984,615
-1,-10,-4,-6,-42,-8,-5,0,-6,17:39:18@14/4/2015,897846985,616
-1,-10,-4,-6,-42,-8,-5,0,-6,17:39:18@14/4/2015,897846986,617
-1,-4,-4,-7,-13,1,-2,-9,-1,17:39:18@14/4/2015,897846987,618
-1,-4,-4,-7,-13,1,-2,-9,-1,17:39:18@14/4/2015,897846988,619
-1,-4,-4,-7,-13,1,-2,-9,-1,17:39:18@14/4/2015,897846989,620
-1,-4,-4,-7,-13,1,-2,-9,-1,17:39:18@14/4/2015,897846990,621
-1,-4,-4,-7,-13,1,-2,-9,-1,17:39:18@14/4/2015,897846991,622
-1,-4,-4,-7,-13,1,-2,-9,-1,17:39:18@14/4/2015,897846992,623
-1,-4,-4,-7,-13,1,-2,-9,-1,17:39:18@14/4/2015,897846993,624
-1,-4,-4,-7,-13,1,-2,-9,-1,17:39:18@14/4/2015,897846994,625
-1,-4,-4,-7,-13,1,-2,-9,-1,17:39:18@14/4/2015,897846995,626
-1,-4,-4,-7,-13,1,-2,-9,-1,17:39:18@14/4/2015,897846996,627
-1,-4,-4,-7,-13,1,-2,-9,-1,17:39:18@14/4/2015,897846997,628
-1,-4,-4,-7,-13,1,-2,-9,-1,17:39:18@14/4/2015,897846998,629
-1,-4,-4,-7,-13,1,-2,-9,-1,17:39:18@14/4/2015,897846999,630
-1,-4,-4,-7,-13,1,-2,-9,-1,17:39:19@14/4/2015,897847000,631
-1,-4,-4,-7,-13,1,-2,-9,-1,17:39:19@14/4/2015,897847001,632
-1,-4,-4,-7,-13,1,-2,-9,-1,17:39:19@14/4/2015,897847002,633
-1,-4,-4,-7,-13,1,-2,-9,-1,17:39:19@14/4/2015,897847003,634
-1,3,-4,-8,-3,-8,-1,0,10,17:39:19@14/4/2015,897847004,635
-1,3,-4,-8,-3,-8,-1,0,10,17:39:19@14/4/2015,897847005,636
-1,3,-4,-8,-3,-8,-1,0,10,17:39:19@14/4/2015,897847006,637
-1,3,-4,-8,-3,-8,-1,0,10,17:39:19@14/4/2015,897847007,638
-1,3,-4,-8,-3,-8,-1,0,10,17:39:19@14/4/2015,897847008,639
-1,3,-4,-8,-3,-8,-1,0,10,17:39:19@14/4/2015,897847009,640
-1,1,-1,-1,-37,-12,-2,7,-2,17:39:19@14/4/2015,897847010,641
-1,1,-1,-1,-37,-12,-2,7,-2,17:39:19@14/4/2015,897847011,642
-1,1,-1,-1,-37,-12,-2,7,-2,17:39:19@14/4/2015,897847012,643
-1,1,-1,-1,-37,-12,-2,7,-2,17:39:19@14/4/2015,897847013,644
-1,1,-1,-1,-37,-12,-2,7,-2,17:39:19@14/4/2015,897847014,645
-1,1,-1,-1,-37,-12,-2,7,-2,17:39:19@14/4/2015,897847015,646
-1,1,-1,-1,-37,-12,-2,7,-2,17:39:19@14/4/2015,897847016,647
-1,1,-1,-1,-37,-12,-2,7,-2,17:39:19@14/4/2015,897847017,648
-1,1,-1,-1,-37,-12,-2,7,-2,17:39:19@14/4/2015,897847018,649
-1,-4,-2,4,44,19,-2,3,-6,17:39:19@14/4/2015,897847019,650
-1,-4,-2,4,44,19,-2,3,-6,17:39:19@14/4/2015,897847020,651
-1,-4,-2,4,44,19,-2,3,-6,17:39:19@14/4/2015,897847021,652
-1,-4,-2,4,44,19,-2,3,-6,17:39:19@14/4/2015,897847022,653
-1,-4,-2,4,44,19,-2,3,-6,17:39:19@14/4/2015,897847023,654
-1,-4,-2,4,44,19,-2,3,-6,17:39:19@14/4/2015,897847024,655
-1,-4,-2,4,44,19,-2,3,-6,17:39:19@14/4/2015,897847025,656
-1,-4,-2,4,44,19,-2,3,-6,17:39:19@14/4/2015,897847026,657
-1,-4,-2,4,44,19,-2,3,-6,17:39:19@14/4/2015,897847027,658
-1,-4,-2,4,44,19,-2,3,-6,17:39:19@14/4/2015,897847028,659
-1,-4,-2,4,44,19,-2,3,-6,17:39:19@14/4/2015,897847029,660
-1,-4,-2,4,44,19,-2,3,-6,17:39:19@14/4/2015,897847030,661
-1,-4,-2,4,44,19,-2,3,-6,17:39:19@14/4/2015,897847031,662
-1,2,3,8,60,43,6,5,3,17:39:19@14/4/2015,897847032,663
-1,2,3,8,60,43,6,5,3,17:39:19@14/4/2015,897847033,664
-1,2,3,8,60,43,6,5,3,17:39:19@14/4/2015,897847034,665
-1,2,3,8,60,43,6,5,3,17:39:19@14/4/2015,897847035,666
-1,2,3,8,60,43,6,5,3,17:39:19@14/4/2015,897847036,667
-1,2,3,8,60,43,6,5,3,17:39:19@14/4/2015,897847037,668
-1,2,3,8,60,43,6,5,3,17:39:19@14/4/2015,897847038,669
-1,2,3,8,60,43,6,5,3,17:39:19@14/4/2015,897847039,670
-1,2,3,8,60,43,6,5,3,17:39:19@14/4/2015,897847040,671
-1,-8,-7,-4,8,-26,-7,-11,-7,17:39:19@14/4/2015,897847041,672
-1,-8,-7,-4,8,-26,-7,-11,-7,17:39:19@14/4/2015,897847042,673
-1,-8,-7,-4,8,-26,-7,-11,-7,17:39:19@14/4/2015,897847043,674
-1,-8,-7,-4,8,-26,-7,-11,-7,17:39:19@14/4/2015,897847044,675
-1,-8,-7,-4,8,-26,-7,-11,-7,17:39:19@14/4/2015,897847045,676
-1,-8,-7,-4,8,-26,-7,-11,-7,17:39:19@14/4/2015,897847046,677
-1,-3,-2,-3,-1,-26,-4,2,-1,17:39:19@14/4/2015,897847047,678
-1,-3,-2,-3,-1,-26,-4,2,-1,17:39:19@14/4/2015,897847048,679
-1,-3,-2,-3,-1,-26,-4,2,-1,17:39:19@14/4/2015,897847049,680
-1,-3,-2,-3,-1,-26,-4,2,-1,17:39:19@14/4/2015,897847050,681
-1,-3,-2,-3,-1,-26,-4,2,-1,17:39:19@14/4/2015,897847051,682
-1,-3,-2,-3,-1,-26,-4,2,-1,17:39:19@14/4/2015,897847052,683
-1,-3,-2,-3,-1,-26,-4,2,-1,17:39:19@14/4/2015,897847053,684
-1,-3,-2,-3,-1,-26,-4,2,-1,17:39:19@14/4/2015,897847054,685
-1,-3,-2,-3,-1,-26,-4,2,-1,17:39:19@14/4/2015,897847055,686
-1,-3,-2,-3,-1,-26,-4,2,-1,17:39:19@14/4/2015,897847056,687
-1,-3,-2,-3,-1,-26,-4,2,-1,17:39:19@14/4/2015,897847057,688
-1,-3,-2,-3,-1,-26,-4,2,-1,17:39:19@14/4/2015,897847058,689
-1,-3,-2,-3,-1,-26,-4,2,-1,17:39:19@14/4/2015,897847059,690
-1,-3,-2,-3,-1,-26,-4,2,-1,17:39:19@14/4/2015,897847060,691
-1,-3,-2,-3,-1,-26,-4,2,-1,17:39:19@14/4/2015,897847061,692
-1,-3,-2,-3,-1,-26,-4,2,-1,17:39:19@14/4/2015,897847062,693
-1,-3,-2,-3,-1,-26,-4,2,-1,17:39:19@14/4/2015,897847063,694
-1,0,-1,-6,2,-11,1,-1,-2,17:39:19@14/4/2015,897847064,695
-1,0,-1,-6,2,-11,1,-1,-2,17:39:19@14/4/2015,897847065,696
-1,0,-1,-6,2,-11,1,-1,-2,17:39:19@14/4/2015,897847066,697
-1,0,-1,-6,2,-11,1,-1,-2,17:39:19@14/4/2015,897847067,698
-1,0,-1,-6,2,-11,1,-1,-2,17:39:19@14/4/2015,897847068,699
-1,0,-1,-6,2,-11,1,-1,-2,17:39:19@14/4/2015,897847069,700
-1,0,6,4,12,15,0,4,2,17:39:19@14/4/2015,897847070,701
-1,0,6,4,12,15,0,4,2,17:39:19@14/4/2015,897847071,702
-1,0,6,4,12,15,0,4,2,17:39:19@14/4/2015,897847072,703
-1,0,6,4,12,15,0,4,2,17:39:19@14/4/2015,897847073,704
-1,0,6,4,12,15,0,4,2,17:39:19@14/4/2015,897847074,705
-1,0,6,4,12,15,0,4,2,17:39:19@14/4/2015,897847075,706
-1,0,6,4,12,15,0,4,2,17:39:19@14/4/2015,897847076,707
-1,0,6,4,12,15,0,4,2,17:39:19@14/4/2015,897847077,708
-1,0,6,4,12,15,0,4,2,17:39:19@14/4/2015,897847078,709
-1,2,5,16,12,20,-1,3,1,17:39:19@14/4/2015,897847079,710
-1,2,5,16,12,20,-1,3,1,17:39:19@14/4/2015,897847080,711
-1,2,5,16,12,20,-1,3,1,17:39:19@14/4/2015,897847081,712
-1,2,5,16,12,20,-1,3,1,17:39:19@14/4/2015,897847082,713
-1,2,5,16,12,20,-1,3,1,17:39:19@14/4/2015,897847083,714
-1,2,5,16,12,20,-1,3,1,17:39:19@14/4/2015,897847084,715
-1,2,5,16,12,20,-1,3,1,17:39:19@14/4/2015,897847085,716
-1,2,5,16,12,20,-1,3,1,17:39:19@14/4/2015,897847086,717
-1,2,5,16,12,20,-1,3,1,17:39:19@14/4/2015,897847087,718
-1,2,5,16,12,20,-1,3,1,17:39:19@14/4/2015,897847088,719
-1,2,5,16,12,20,-1,3,1,17:39:19@14/4/2015,897847089,720
-1,2,5,16,12,20,-1,3,1,17:39:19@14/4/2015,897847090,721
-1,2,5,16,12,20,-1,3,1,17:39:19@14/4/2015,897847091,722
-1,-7,-19,-40,6,-5,-1,-12,-3,17:39:19@14/4/2015,897847092,723
-1,-7,-19,-40,6,-5,-1,-12,-3,17:39:19@14/4/2015,897847093,724
-1,-7,-19,-40,6,-5,-1,-12,-3,17:39:19@14/4/2015,897847094,725
-1,-7,-19,-40,6,-5,-1,-12,-3,17:39:19@14/4/2015,897847095,726
-1,-7,-19,-40,6,-5,-1,-12,-3,17:39:19@14/4/2015,897847096,727
-1,-7,-19,-40,6,-5,-1,-12,-3,17:39:19@14/4/2015,897847097,728
-1,-7,-19,-40,6,-5,-1,-12,-3,17:39:19@14/4/2015,897847098,729
-1,-7,-19,-40,6,-5,-1,-12,-3,17:39:19@14/4/2015,897847099,730
-1,-7,-19,-40,6,-5,-1,-12,-3,17:39:19@14/4/2015,897847100,731
-1,3,6,29,78,26,4,7,-1,17:39:19@14/4/2015,897847101,732
-1,3,6,29,78,26,4,7,-1,17:39:19@14/4/2015,897847102,733
-1,3,6,29,78,26,4,7,-1,17:39:19@14/4/2015,897847103,734
-1,3,6,29,78,26,4,7,-1,17:39:19@14/4/2015,897847104,735
-1,3,6,29,78,26,4,7,-1,17:39:19@14/4/2015,897847105,736
-1,3,6,29,78,26,4,7,-1,17:39:19@14/4/2015,897847106,737
-1,-3,8,6,17,-20,-4,4,-3,17:39:19@14/4/2015,897847107,738
-1,-3,8,6,17,-20,-4,4,-3,17:39:19@14/4/2015,897847108,739
-1,-3,8,6,17,-20,-4,4,-3,17:39:19@14/4/2015,897847109,740
-1,-3,8,6,17,-20,-4,4,-3,17:39:19@14/4/2015,897847110,741
-1,-3,8,6,17,-20,-4,4,-3,17:39:19@14/4/2015,897847111,742
-1,-3,8,6,17,-20,-4,4,-3,17:39:19@14/4/2015,897847112,743
-1,-3,8,6,17,-20,-4,4,-3,17:39:19@14/4/2015,897847113,744
-1,-3,8,6,17,-20,-4,4,-3,17:39:19@14/4/2015,897847114,745
-1,-3,8,6,17,-20,-4,4,-3,17:39:19@14/4/2015,897847115,746
-1,-3,8,6,17,-20,-4,4,-3,17:39:19@14/4/2015,897847116,747
-1,-3,8,6,17,-20,-4,4,-3,17:39:19@14/4/2015,897847117,748
-1,-3,8,6,17,-20,-4,4,-3,17:39:19@14/4/2015,897847118,749
-1,-3,8,6,17,-20,-4,4,-3,17:39:19@14/4/2015,897847119,750
-1,-3,8,6,17,-20,-4,4,-3,17:39:19@14/4/2015,897847120,751
-1,-3,8,6,17,-20,-4,4,-3,17:39:19@14/4/2015,897847121,752
-1,-3,8,6,17,-20,-4,4,-3,17:39:19@14/4/2015,897847122,753
-1,-3,8,6,17,-20,-4,4,-3,17:39:19@14/4/2015,897847123,754
-1,-12,-16,-30,16,-6,-4,-10,-3,17:39:19@14/4/2015,897847124,755
-1,-12,-16,-30,16,-6,-4,-10,-3,17:39:19@14/4/2015,897847125,756
-1,-12,-16,-30,16,-6,-4,-10,-3,17:39:19@14/4/2015,897847126,757
-1,-12,-16,-30,16,-6,-4,-10,-3,17:39:19@14/4/2015,897847127,758
-1,-12,-16,-30,16,-6,-4,-10,-3,17:39:19@14/4/2015,897847128,759
-1,-12,-16,-30,16,-6,-4,-10,-3,17:39:19@14/4/2015,897847129,760
-1,-1,2,-2,-70,-14,-8,2,3,17:39:19@14/4/2015,897847130,761
-1,-1,2,-2,-70,-14,-8,2,3,17:39:19@14/4/2015,897847131,762
-1,-1,2,-2,-70,-14,-8,2,3,17:39:19@14/4/2015,897847132,763
-1,-1,2,-2,-70,-14,-8,2,3,17:39:19@14/4/2015,897847133,764
-1,-1,2,-2,-70,-14,-8,2,3,17:39:19@14/4/2015,897847134,765
-1,-1,2,-2,-70,-14,-8,2,3,17:39:19@14/4/2015,897847135,766
-1,-1,2,-2,-70,-14,-8,2,3,17:39:19@14/4/2015,897847136,767
-1,-1,2,-2,-70,-14,-8,2,3,17:39:19@14/4/2015,897847137,768
-1,-1,2,-2,-70,-14,-8,2,3,17:39:19@14/4/2015,897847138,769
-1,6,4,3,24,23,7,4,9,17:39:19@14/4/2015,897847139,770
-1,6,4,3,24,23,7,4,9,17:39:19@14/4/2015,897847140,771
-1,6,4,3,24,23,7,4,9,17:39:19@14/4/2015,897847141,772
-1,6,4,3,24,23,7,4,9,17:39:19@14/4/2015,897847142,773
-1,6,4,3,24,23,7,4,9,17:39:19@14/4/2015,897847143,774
-1,6,4,3,24,23,7,4,9,17:39:19@14/4/2015,897847144,775
-1,6,4,3,24,23,7,4,9,17:39:19@14/4/2015,897847145,776
-1,6,4,3,24,23,7,4,9,17:39:19@14/4/2015,897847146,777
-1,6,4,3,24,23,7,4,9,17:39:19@14/4/2015,897847147,778
-1,6,4,3,24,23,7,4,9,17:39:19@14/4/2015,897847148,779
-1,6,4,3,24,23,7,4,9,17:39:19@14/4/2015,897847149,780
-1,6,4,3,24,23,7,4,9,17:39:19@14/4/2015,897847150,781
-1,6,4,3,24,23,7,4,9,17:39:19@14/4/2015,897847151,782
-1,-4,-16,-24,-4,2,0,-11,-6,17:39:19@14/4/2015,897847152,783
-1,-4,-16,-24,-4,2,0,-11,-6,17:39:19@14/4/2015,897847153,784
-1,-4,-16,-24,-4,2,0,-11,-6,17:39:19@14/4/2015,897847154,785
-1,-4,-16,-24,-4,2,0,-11,-6,17:39:19@14/4/2015,897847155,786
-1,-4,-16,-24,-4,2,0,-11,-6,17:39:19@14/4/2015,897847156,787
-1,-4,-16,-24,-4,2,0,-11,-6,17:39:19@14/4/2015,897847157,788
-1,-4,-16,-24,-4,2,0,-11,-6,17:39:19@14/4/2015,897847158,789
-1,-4,-16,-24,-4,2,0,-11,-6,17:39:19@14/4/2015,897847159,790
-1,-4,-16,-24,-4,2,0,-11,-6,17:39:19@14/4/2015,897847160,791
-1,-17,-8,-6,-82,-10,3,-35,-66,17:39:19@14/4/2015,897847161,792
-1,-17,-8,-6,-82,-10,3,-35,-66,17:39:19@14/4/2015,897847162,793
-1,-17,-8,-6,-82,-10,3,-35,-66,17:39:19@14/4/2015,897847163,794
-1,-17,-8,-6,-82,-10,3,-35,-66,17:39:19@14/4/2015,897847164,795
-1,-17,-8,-6,-82,-10,3,-35,-66,17:39:19@14/4/2015,897847165,796
-1,-17,-8,-6,-82,-10,3,-35,-66,17:39:19@14/4/2015,897847166,797
-1,52,19,23,21,10,5,23,20,17:39:19@14/4/2015,897847167,798
-1,52,19,23,21,10,5,23,20,17:39:19@14/4/2015,897847168,799
-1,52,19,23,21,10,5,23,20,17:39:19@14/4/2015,897847169,800
-1,52,19,23,21,10,5,23,20,17:39:19@14/4/2015,897847170,801
-1,52,19,23,21,10,5,23,20,17:39:19@14/4/2015,897847171,802
-1,52,19,23,21,10,5,23,20,17:39:19@14/4/2015,897847172,803
-1,52,19,23,21,10,5,23,20,17:39:19@14/4/2015,897847173,804
-1,52,19,23,21,10,5,23,20,17:39:19@14/4/2015,897847174,805
-1,52,19,23,21,10,5,23,20,17:39:19@14/4/2015,897847175,806
-1,52,19,23,21,10,5,23,20,17:39:19@14/4/2015,897847176,807
-1,52,19,23,21,10,5,23,20,17:39:19@14/4/2015,897847177,808
-1,52,19,23,21,10,5,23,20,17:39:19@14/4/2015,897847178,809
-1,52,19,23,21,10,5,23,20,17:39:19@14/4/2015,897847179,810
-1,52,19,23,21,10,5,23,20,17:39:19@14/4/2015,897847180,811
-1,52,19,23,21,10,5,23,20,17:39:19@14/4/2015,897847181,812
-1,52,19,23,21,10,5,23,20,17:39:19@14/4/2015,897847182,813
-1,52,19,23,21,10,5,23,20,17:39:19@14/4/2015,897847183,814
-1,41,2,-11,-24,-15,-14,-15,98,17:39:19@14/4/2015,897847184,815
-1,41,2,-11,-24,-15,-14,-15,98,17:39:19@14/4/2015,897847185,816
-1,41,2,-11,-24,-15,-14,-15,98,17:39:19@14/4/2015,897847186,817
-1,41,2,-11,-24,-15,-14,-15,98,17:39:19@14/4/2015,897847187,818
-1,41,2,-11,-24,-15,-14,-15,98,17:39:19@14/4/2015,897847188,819
-1,41,2,-11,-24,-15,-14,-15,98,17:39:19@14/4/2015,897847189,820
-1,0,-3,10,23,0,1,-20,66,17:39:19@14/4/2015,897847190,821
-1,0,-3,10,23,0,1,-20,66,17:39:19@14/4/2015,897847191,822
-1,0,-3,10,23,0,1,-20,66,17:39:19@14/4/2015,897847192,823
-1,0,-3,10,23,0,1,-20,66,17:39:19@14/4/2015,897847193,824
-1,0,-3,10,23,0,1,-20,66,17:39:19@14/4/2015,897847194,825
-1,0,-3,10,23,0,1,-20,66,17:39:19@14/4/2015,897847195,826
-1,0,-3,10,23,0,1,-20,66,17:39:19@14/4/2015,897847196,827
-1,0,-3,10,23,0,1,-20,66,17:39:19@14/4/2015,897847197,828
-1,0,-3,10,23,0,1,-20,66,17:39:19@14/4/2015,897847198,829
-1,-29,9,11,-14,15,20,86,-4,17:39:19@14/4/2015,897847199,830
-1,-29,9,11,-14,15,20,86,-4,17:39:19@14/4/2015,897847200,831
-1,-29,9,11,-14,15,20,86,-4,17:39:19@14/4/2015,897847201,832
-1,-29,9,11,-14,15,20,86,-4,17:39:19@14/4/2015,897847202,833
-1,-29,9,11,-14,15,20,86,-4,17:39:19@14/4/2015,897847203,834
-1,-29,9,11,-14,15,20,86,-4,17:39:19@14/4/2015,897847204,835
-1,-29,9,11,-14,15,20,86,-4,17:39:19@14/4/2015,897847205,836
-1,-29,9,11,-14,15,20,86,-4,17:39:19@14/4/2015,897847206,837
-1,-29,9,11,-14,15,20,86,-4,17:39:19@14/4/2015,897847207,838
-1,-29,9,11,-14,15,20,86,-4,17:39:19@14/4/2015,897847208,839
-1,-29,9,11,-14,15,20,86,-4,17:39:19@14/4/2015,897847209,840
-1,-29,9,11,-14,15,20,86,-4,17:39:19@14/4/2015,897847210,841
-1,-29,9,11,-14,15,20,86,-4,17:39:19@14/4/2015,897847211,842
-1,-22,0,1,-18,-3,-15,6,19,17:39:19@14/4/2015,897847212,843
-1,-22,0,1,-18,-3,-15,6,19,17:39:19@14/4/2015,897847213,844
-1,-22,0,1,-18,-3,-15,6,19,17:39:19@14/4/2015,897847214,845
-1,-22,0,1,-18,-3,-15,6,19,17:39:19@14/4/2015,897847215,846
-1,-22,0,1,-18,-3,-15,6,19,17:39:19@14/4/2015,897847216,847
-1,-22,0,1,-18,-3,-15,6,19,17:39:19@14/4/2015,897847217,848
-1,-22,0,1,-18,-3,-15,6,19,17:39:19@14/4/2015,897847218,849
-1,-22,0,1,-18,-3,-15,6,19,17:39:19@14/4/2015,897847219,850
-1,-22,0,1,-18,-3,-15,6,19,17:39:19@14/4/2015,897847220,851
-1,23,14,7,-7,-6,12,10,14,17:39:19@14/4/2015,897847221,852
-1,23,14,7,-7,-6,12,10,14,17:39:19@14/4/2015,897847222,853
-1,23,14,7,-7,-6,12,10,14,17:39:19@14/4/2015,897847223,854
-1,23,14,7,-7,-6,12,10,14,17:39:19@14/4/2015,897847224,855
-1,23,14,7,-7,-6,12,10,14,17:39:19@14/4/2015,897847225,856
-1,23,14,7,-7,-6,12,10,14,17:39:19@14/4/2015,897847226,857
-1,-73,-8,-2,5,5,35,-94,-128,17:39:19@14/4/2015,897847227,858
-1,-73,-8,-2,5,5,35,-94,-128,17:39:19@14/4/2015,897847228,859
-1,-73,-8,-2,5,5,35,-94,-128,17:39:19@14/4/2015,897847229,860
-1,-73,-8,-2,5,5,35,-94,-128,17:39:19@14/4/2015,897847230,861
-1,-73,-8,-2,5,5,35,-94,-128,17:39:19@14/4/2015,897847231,862
-1,-73,-8,-2,5,5,35,-94,-128,17:39:19@14/4/2015,897847232,863
-1,-73,-8,-2,5,5,35,-94,-128,17:39:19@14/4/2015,897847233,864
-1,-73,-8,-2,5,5,35,-94,-128,17:39:19@14/4/2015,897847234,865
-1,-73,-8,-2,5,5,35,-94,-128,17:39:19@14/4/2015,897847235,866
-1,-73,-8,-2,5,5,35,-94,-128,17:39:19@14/4/2015,897847236,867
-1,-73,-8,-2,5,5,35,-94,-128,17:39:19@14/4/2015,897847237,868
-1,-73,-8,-2,5,5,35,-94,-128,17:39:19@14/4/2015,897847238,869
-1,-73,-8,-2,5,5,35,-94,-128,17:39:19@14/4/2015,897847239,870
-1,-73,-8,-2,5,5,35,-94,-128,17:39:19@14/4/2015,897847240,871
-1,-73,-8,-2,5,5,35,-94,-128,17:39:19@14/4/2015,897847241,872
-1,-73,-8,-2,5,5,35,-94,-128,17:39:19@14/4/2015,897847242,873
-1,-73,-8,-2,5,5,35,-94,-128,17:39:19@14/4/2015,897847243,874
4,-73,-8,-2,5,5,35,-94,-128,17:39:19@14/4/2015,897847244,875
4,54,13,-2,-17,-71,17,84,94,17:39:19@14/4/2015,897847245,876
4,54,13,-2,-17,-71,17,84,94,17:39:19@14/4/2015,897847246,877
4,54,13,-2,-17,-71,17,84,94,17:39:19@14/4/2015,897847247,878
4,54,13,-2,-17,-71,17,84,94,17:39:19@14/4/2015,897847248,879
4,54,13,-2,-17,-71,17,84,94,17:39:19@14/4/2015,897847249,880
4,19,0,0,9,-41,-28,8,-91,17:39:19@14/4/2015,897847250,881
4,19,0,0,9,-41,-28,8,-91,17:39:19@14/4/2015,897847251,882
4,19,0,0,9,-41,-28,8,-91,17:39:19@14/4/2015,897847252,883
4,19,0,0,9,-41,-28,8,-91,17:39:19@14/4/2015,897847253,884
4,19,0,0,9,-41,-28,8,-91,17:39:19@14/4/2015,897847254,885
4,19,0,0,9,-41,-28,8,-91,17:39:19@14/4/2015,897847255,886
4,19,0,0,9,-41,-28,8,-91,17:39:19@14/4/2015,897847256,887
4,19,0,0,9,-41,-28,8,-91,17:39:19@14/4/2015,897847257,888
4,19,0,0,9,-41,-28,8,-91,17:39:19@14/4/2015,897847258,889
4,19,0,0,9,-41,-28,8,-91,17:39:19@14/4/2015,897847259,890
4,19,0,0,9,-41,-28,8,-91,17:39:19@14/4/2015,897847260,891
4,19,0,0,9,-41,-28,8,-91,17:39:19@14/4/2015,897847261,892
4,19,0,0,9,-41,-28,8,-91,17:39:19@14/4/2015,897847262,893
4,19,0,0,9,-41,-28,8,-91,17:39:19@14/4/2015,897847263,894
4,19,0,0,9,-41,-28,8,-91,17:39:19@14/4/2015,897847264,895
0,19,0,0,9,-41,-28,8,-91,17:39:19@14/4/2015,897847265,896
0,-50,-2,12,23,62,6,-66,-128,17:39:19@14/4/2015,897847266,897
0,-50,-2,12,23,62,6,-66,-128,17:39:19@14/4/2015,897847267,898
0,-50,-2,12,23,62,6,-66,-128,17:39:19@14/4/2015,897847268,899
0,-50,-2,12,23,62,6,-66,-128,17:39:19@14/4/2015,897847269,900
0,-50,-2,12,23,62,6,-66,-128,17:39:19@14/4/2015,897847270,901
0,-50,-2,12,23,62,6,-66,-128,17:39:19@14/4/2015,897847271,902
0,-50,-2,12,23,62,6,-66,-128,17:39:19@14/4/2015,897847272,903
0,-50,-2,12,23,62,6,-66,-128,17:39:19@14/4/2015,897847273,904
0,22,5,18,18,14,12,72,21,17:39:19@14/4/2015,897847274,905
0,22,5,18,18,14,12,72,21,17:39:19@14/4/2015,897847275,906
0,22,5,18,18,14,12,72,21,17:39:19@14/4/2015,897847276,907
0,22,5,18,18,14,12,72,21,17:39:19@14/4/2015,897847277,908
0,22,5,18,18,14,12,72,21,17:39:19@14/4/2015,897847278,909
0,22,5,18,18,14,12,72,21,17:39:19@14/4/2015,897847279,910
0,22,5,18,18,14,12,72,21,17:39:19@14/4/2015,897847280,911
0,-9,-15,-29,-51,-108,-26,-19,-36,17:39:19@14/4/2015,897847281,912
0,-9,-15,-29,-51,-108,-26,-19,-36,17:39:19@14/4/2015,897847282,913
0,-9,-15,-29,-51,-108,-26,-19,-36,17:39:19@14/4/2015,897847283,914
0,-9,-15,-29,-51,-108,-26,-19,-36,17:39:19@14/4/2015,897847284,915
0,-9,-15,-29,-51,-108,-26,-19,-36,17:39:19@14/4/2015,897847285,916
0,-9,-15,-29,-51,-108,-26,-19,-36,17:39:19@14/4/2015,897847286,917
0,-9,-15,-29,-51,-108,-26,-19,-36,17:39:19@14/4/2015,897847287,918
0,8,-2,-14,-12,18,10,-12,31,17:39:19@14/4/2015,897847288,919
0,8,-2,-14,-12,18,10,-12,31,17:39:19@14/4/2015,897847289,920
0,8,-2,-14,-12,18,10,-12,31,17:39:19@14/4/2015,897847290,921
0,8,-2,-14,-12,18,10,-12,31,17:39:19@14/4/2015,897847291,922
0,8,-2,-14,-12,18,10,-12,31,17:39:19@14/4/2015,897847292,923
0,8,-2,-14,-12,18,10,-12,31,17:39:19@14/4/2015,897847293,924
0,8,-2,-14,-12,18,10,-12,31,17:39:19@14/4/2015,897847294,925
0,8,-2,-14,-12,18,10,-12,31,17:39:19@14/4/2015,897847295,926
0,8,-2,-14,-12,18,10,-12,31,17:39:19@14/4/2015,897847296,927
0,8,-2,-14,-12,18,10,-12,31,17:39:19@14/4/2015,897847297,928
0,8,-2,-14,-12,18,10,-12,31,17:39:19@14/4/2015,897847298,929
0,8,-2,-14,-12,18,10,-12,31,17:39:19@14/4/2015,897847299,930
0,8,-2,-14,-12,18,10,-12,31,17:39:19@14/4/2015,897847300,931
0,8,-2,-14,-12,18,10,-12,31,17:39:19@14/4/2015,897847301,932
0,8,-2,-14,-12,18,10,-12,31,17:39:19@14/4/2015,897847302,933
0,-9,-4,-5,-5,-26,10,-1,66,17:39:19@14/4/2015,897847304,935
0,-9,-4,-5,-5,-26,10,-1,66,17:39:19@14/4/2015,897847305,936
0,-9,-4,-5,-5,-26,10,-1,66,17:39:19@14/4/2015,897847306,937
0,-9,-4,-5,-5,-26,10,-1,66,17:39:19@14/4/2015,897847307,938
0,-9,-4,-5,-5,-26,10,-1,66,17:39:19@14/4/2015,897847308,939
0,-9,-4,-5,-5,-26,10,-1,66,17:39:19@14/4/2015,897847309,940
0,53,-10,-7,-21,95,-3,-30,86,17:39:19@14/4/2015,897847310,941
0,53,-10,-7,-21,95,-3,-30,86,17:39:19@14/4/2015,897847311,942
0,53,-10,-7,-21,95,-3,-30,86,17:39:19@14/4/2015,897847312,943
0,53,-10,-7,-21,95,-3,-30,86,17:39:19@14/4/2015,897847313,944
0,53,-10,-7,-21,95,-3,-30,86,17:39:19@14/4/2015,897847314,945
0,53,-10,-7,-21,95,-3,-30,86,17:39:19@14/4/2015,897847315,946
0,53,-10,-7,-21,95,-3,-30,86,17:39:19@14/4/2015,897847316,947
0,53,-10,-7,-21,95,-3,-30,86,17:39:19@14/4/2015,897847317,948
0,53,-10,-7,-21,95,-3,-30,86,17:39:19@14/4/2015,897847318,949
0,53,-10,-7,-21,95,-3,-30,86,17:39:19@14/4/2015,897847319,950
0,53,-10,-7,-21,95,-3,-30,86,17:39:19@14/4/2015,897847320,951
0,53,-10,-7,-21,95,-3,-30,86,17:39:19@14/4/2015,897847321,952
0,53,-10,-7,-21,95,-3,-30,86,17:39:19@14/4/2015,897847322,953
0,53,-10,-7,-21,95,-3,-30,86,17:39:19@14/4/2015,897847323,954
0,53,-10,-7,-21,95,-3,-30,86,17:39:19@14/4/2015,897847324,955
0,-24,-6,-1,-6,50,-18,14,-14,17:39:19@14/4/2015,897847325,956
0,-24,-6,-1,-6,50,-18,14,-14,17:39:19@14/4/2015,897847326,957
0,-24,-6,-1,-6,50,-18,14,-14,17:39:19@14/4/2015,897847327,958
0,-24,-6,-1,-6,50,-18,14,-14,17:39:19@14/4/2015,897847328,959
0,-24,-6,-1,-6,50,-18,14,-14,17:39:19@14/4/2015,897847329,960
0,-24,-6,-1,-6,50,-18,14,-14,17:39:19@14/4/2015,897847330,961
0,-24,-6,-1,-6,50,-18,14,-14,17:39:19@14/4/2015,897847331,962
0,-19,5,7,17,-49,22,5,84,17:39:19@14/4/2015,897847332,963
0,-19,5,7,17,-49,22,5,84,17:39:19@14/4/2015,897847333,964
0,-19,5,7,17,-49,22,5,84,17:39:19@14/4/2015,897847334,965
0,-19,5,7,17,-49,22,5,84,17:39:19@14/4/2015,897847335,966
0,-19,5,7,17,-49,22,5,84,17:39:19@14/4/2015,897847336,967
0,-19,5,7,17,-49,22,5,84,17:39:19@14/4/2015,897847337,968
0,-19,5,7,17,-49,22,5,84,17:39:19@14/4/2015,897847338,969
0,-19,5,7,17,-49,22,5,84,17:39:19@14/4/2015,897847339,970
0,-19,5,7,17,-49,22,5,84,17:39:19@14/4/2015,897847340,971
0,-19,-1,-5,-5,-29,-28,-43,20,17:39:19@14/4/2015,897847341,972
0,-19,-1,-5,-5,-29,-28,-43,20,17:39:19@14/4/2015,897847342,973
0,-19,-1,-5,-5,-29,-28,-43,20,17:39:19@14/4/2015,897847343,974
0,-19,-1,-5,-5,-29,-28,-43,20,17:39:19@14/4/2015,897847344,975
0,-19,-1,-5,-5,-29,-28,-43,20,17:39:19@14/4/2015,897847345,976
0,-19,-1,-5,-5,-29,-28,-43,20,17:39:19@14/4/2015,897847346,977
0,-19,-1,-5,-5,-29,-28,-43,20,17:39:19@14/4/2015,897847347,978
0,-19,-1,-5,-5,-29,-28,-43,20,17:39:19@14/4/2015,897847348,979
0,-19,-1,-5,-5,-29,-28,-43,20,17:39:19@14/4/2015,897847349,980
0,-19,-1,-5,-5,-29,-28,-43,20,17:39:19@14/4/2015,897847350,981
0,-19,-1,-5,-5,-29,-28,-43,20,17:39:19@14/4/2015,897847351,982
0,-19,-1,-5,-5,-29,-28,-43,20,17:39:19@14/4/2015,897847352,983
0,-19,-1,-5,-5,-29,-28,-43,20,17:39:19@14/4/2015,897847353,984
0,-19,-1,-5,-5,-29,-28,-43,20,17:39:19@14/4/2015,897847354,985
0,-52,-10,-5,-10,-37,-24,-60,-119,17:39:19@14/4/2015,897847355,986
0,-52,-10,-5,-10,-37,-24,-60,-119,17:39:19@14/4/2015,897847356,987
0,-52,-10,-5,-10,-37,-24,-60,-119,17:39:19@14/4/2015,897847357,988
0,-52,-10,-5,-10,-37,-24,-60,-119,17:39:19@14/4/2015,897847358,989
0,-52,-10,-5,-10,-37,-24,-60,-119,17:39:19@14/4/2015,897847359,990
0,-52,-10,-5,-10,-37,-24,-60,-119,17:39:19@14/4/2015,897847360,991
0,-52,-10,-5,-10,-37,-24,-60,-119,17:39:19@14/4/2015,897847361,992
0,-52,-10,-5,-10,-37,-24,-60,-119,17:39:19@14/4/2015,897847362,993
0,-52,-10,-5,-10,-37,-24,-60,-119,17:39:19@14/4/2015,897847363,994
0,-36,-4,-1,-5,12,1,-6,-79,17:39:19@14/4/2015,897847364,995
0,-36,-4,-1,-5,12,1,-6,-79,17:39:19@14/4/2015,897847365,996
0,-36,-4,-1,-5,12,1,-6,-79,17:39:19@14/4/2015,897847366,997
0,-36,-4,-1,-5,12,1,-6,-79,17:39:19@14/4/2015,897847367,998
0,-36,-4,-1,-5,12,1,-6,-79,17:39:19@14/4/2015,897847368,999
0,-36,-4,-1,-5,12,1,-6,-79,17:39:19@14/4/2015,897847369,1000
0,-85,11,9,16,43,13,13,-52,17:39:19@14/4/2015,897847370,1001
0,-85,11,9,16,43,13,13,-52,17:39:19@14/4/2015,897847371,1002
0,-85,11,9,16,43,13,13,-52,17:39:19@14/4/2015,897847372,1003
0,-85,11,9,16,43,13,13,-52,17:39:19@14/4/2015,897847373,1004
0,-85,11,9,16,43,13,13,-52,17:39:19@14/4/2015,897847374,1005
0,-85,11,9,16,43,13,13,-52,17:39:19@14/4/2015,897847375,1006
0,-85,11,9,16,43,13,13,-52,17:39:19@14/4/2015,897847376,1007
0,-85,11,9,16,43,13,13,-52,17:39:19@14/4/2015,897847377,1008
0,-85,11,9,16,43,13,13,-52,17:39:19@14/4/2015,897847378,1009
0,-85,11,9,16,43,13,13,-52,17:39:19@14/4/2015,897847379,1010
0,-85,11,9,16,43,13,13,-52,17:39:19@14/4/2015,897847380,1011
0,-85,11,9,16,43,13,13,-52,17:39:19@14/4/2015,897847381,1012
0,-85,11,9,16,43,13,13,-52,17:39:19@14/4/2015,897847382,1013
0,-85,11,9,16,43,13,13,-52,17:39:19@14/4/2015,897847383,1014
0,-85,11,9,16,43,13,13,-52,17:39:19@14/4/2015,897847384,1015
0,37,2,-1,-2,16,-9,9,-63,17:39:19@14/4/2015,897847385,1016
0,37,2,-1,-2,16,-9,9,-63,17:39:19@14/4/2015,897847386,1017
0,37,2,-1,-2,16,-9,9,-63,17:39:19@14/4/2015,897847387,1018
0,37,2,-1,-2,16,-9,9,-63,17:39:19@14/4/2015,897847388,1019
0,37,2,-1,-2,16,-9,9,-63,17:39:19@14/4/2015,897847389,1020
0,37,2,-1,-2,16,-9,9,-63,17:39:19@14/4/2015,897847390,1021
0,37,2,-1,-2,16,-9,9,-63,17:39:19@14/4/2015,897847391,1022
0,13,-4,-3,-1,-25,-13,15,0,17:39:19@14/4/2015,897847392,1023
0,13,-4,-3,-1,-25,-13,15,0,17:39:19@14/4/2015,897847393,1024
0,13,-4,-3,-1,-25,-13,15,0,17:39:19@14/4/2015,897847394,1025
0,13,-4,-3,-1,-25,-13,15,0,17:39:19@14/4/2015,897847395,1026
0,13,-4,-3,-1,-25,-13,15,0,17:39:19@14/4/2015,897847396,1027
0,13,-4,-3,-1,-25,-13,15,0,17:39:19@14/4/2015,897847397,1028
0,13,-4,-3,-1,-25,-13,15,0,17:39:19@14/4/2015,897847398,1029
0,13,-4,-3,-1,-25,-13,15,0,17:39:19@14/4/2015,897847399,1030
0,13,-4,-3,-1,-25,-13,15,0,17:39:19@14/4/2015,897847400,1031
0,3,-7,-4,-6,23,-8,3,4,17:39:19@14/4/2015,897847401,1032
0,3,-7,-4,-6,23,-8,3,4,17:39:19@14/4/2015,897847402,1033
0,3,-7,-4,-6,23,-8,3,4,17:39:19@14/4/2015,897847403,1034
0,3,-7,-4,-6,23,-8,3,4,17:39:19@14/4/2015,897847404,1035
0,3,-7,-4,-6,23,-8,3,4,17:39:19@14/4/2015,897847405,1036
0,3,-7,-4,-6,23,-8,3,4,17:39:19@14/4/2015,897847406,1037
0,3,-7,-4,-6,23,-8,3,4,17:39:19@14/4/2015,897847407,1038
0,3,-7,-4,-6,23,-8,3,4,17:39:19@14/4/2015,897847408,1039
0,3,-7,-4,-6,23,-8,3,4,17:39:19@14/4/2015,897847409,1040
0,3,-7,-4,-6,23,-8,3,4,17:39:19@14/4/2015,897847410,1041
0,3,-7,-4,-6,23,-8,3,4,17:39:19@14/4/2015,897847411,1042
0,3,-7,-4,-6,23,-8,3,4,17:39:19@14/4/2015,897847412,1043
0,3,-7,-4,-6,23,-8,3,4,17:39:19@14/4/2015,897847413,1044
0,3,-7,-4,-6,23,-8,3,4,17:39:19@14/4/2015,897847414,1045
0,19,-7,-4,-8,-18,-6,15,15,17:39:19@14/4/2015,897847415,1046
0,19,-7,-4,-8,-18,-6,15,15,17:39:19@14/4/2015,897847416,1047
0,19,-7,-4,-8,-18,-6,15,15,17:39:19@14/4/2015,897847417,1048
0,19,-7,-4,-8,-18,-6,15,15,17:39:19@14/4/2015,897847418,1049
0,19,-7,-4,-8,-18,-6,15,15,17:39:19@14/4/2015,897847419,1050
0,19,-7,-4,-8,-18,-6,15,15,17:39:19@14/4/2015,897847421,1052
0,19,-7,-4,-8,-18,-6,15,15,17:39:19@14/4/2015,897847422,1053
0,19,-7,-4,-8,-18,-6,15,15,17:39:19@14/4/2015,897847423,1054
0,-21,-7,-2,-21,-8,1,-25,-2,17:39:19@14/4/2015,897847424,1055
0,-21,-7,-2,-21,-8,1,-25,-2,17:39:19@14/4/2015,897847425,1056
0,-21,-7,-2,-21,-8,1,-25,-2,17:39:19@14/4/2015,897847426,1057
0,-21,-7,-2,-21,-8,1,-25,-2,17:39:19@14/4/2015,897847427,1058
0,-21,-7,-2,-21,-8,1,-25,-2,17:39:19@14/4/2015,897847428,1059
0,-21,-7,-2,-21,-8,1,-25,-2,17:39:19@14/4/2015,897847429,1060
0,25,2,6,14,3,-6,19,11,17:39:19@14/4/2015,897847430,1061
0,25,2,6,14,3,-6,19,11,17:39:19@14/4/2015,897847431,1062
0,25,2,6,14,3,-6,19,11,17:39:19@14/4/2015,897847432,1063
0,25,2,6,14,3,-6,19,11,17:39:19@14/4/2015,897847433,1064
0,25,2,6,14,3,-6,19,11,17:39:19@14/4/2015,897847434,1065
0,25,2,6,14,3,-6,19,11,17:39:19@14/4/2015,897847435,1066
0,25,2,6,14,3,-6,19,11,17:39:19@14/4/2015,897847436,1067
0,25,2,6,14,3,-6,19,11,17:39:19@14/4/2015,897847437,1068
0,25,2,6,14,3,-6,19,11,17:39:19@14/4/2015,897847438,1069
0,25,2,6,14,3,-6,19,11,17:39:19@14/4/2015,897847439,1070
0,25,2,6,14,3,-6,19,11,17:39:19@14/4/2015,897847440,1071
0,25,2,6,14,3,-6,19,11,17:39:19@14/4/2015,897847441,1072
0,25,2,6,14,3,-6,19,11,17:39:19@14/4/2015,897847442,1073
0,25,2,6,14,3,-6,19,11,17:39:19@14/4/2015,897847443,1074
0,25,2,6,14,3,-6,19,11,17:39:19@14/4/2015,897847444,1075
0,5,2,-4,-3,7,-5,-7,14,17:39:19@14/4/2015,897847445,1076
0,5,2,-4,-3,7,-5,-7,14,17:39:19@14/4/2015,897847446,1077
0,5,2,-4,-3,7,-5,-7,14,17:39:19@14/4/2015,897847447,1078
0,5,2,-4,-3,7,-5,-7,14,17:39:19@14/4/2015,897847448,1079
0,5,2,-4,-3,7,-5,-7,14,17:39:19@14/4/2015,897847449,1080
0,5,2,-4,-3,7,-5,-7,14,17:39:19@14/4/2015,897847450,1081
0,5,2,-4,-3,7,-5,-7,14,17:39:19@14/4/2015,897847451,1082
0,12,-1,0,-10,1,-10,8,-3,17:39:19@14/4/2015,897847452,1083
0,12,-1,0,-10,1,-10,8,-3,17:39:19@14/4/2015,897847453,1084
0,12,-1,0,-10,1,-10,8,-3,17:39:19@14/4/2015,897847454,1085
0,12,-1,0,-10,1,-10,8,-3,17:39:19@14/4/2015,897847455,1086
0,12,-1,0,-10,1,-10,8,-3,17:39:19@14/4/2015,897847456,1087
0,12,-1,0,-10,1,-10,8,-3,17:39:19@14/4/2015,897847457,1088
0,12,-1,0,-10,1,-10,8,-3,17:39:19@14/4/2015,897847458,1089
0,12,-1,0,-10,1,-10,8,-3,17:39:19@14/4/2015,897847459,1090
0,12,-1,0,-10,1,-10,8,-3,17:39:19@14/4/2015,897847460,1091
0,9,-5,-12,-39,-2,2,-2,9,17:39:19@14/4/2015,897847461,1092
0,9,-5,-12,-39,-2,2,-2,9,17:39:19@14/4/2015,897847462,1093
0,9,-5,-12,-39,-2,2,-2,9,17:39:19@14/4/2015,897847463,1094
0,9,-5,-12,-39,-2,2,-2,9,17:39:19@14/4/2015,897847464,1095
0,9,-5,-12,-39,-2,2,-2,9,17:39:19@14/4/2015,897847465,1096
0,9,-5,-12,-39,-2,2,-2,9,17:39:19@14/4/2015,897847466,1097
0,9,-5,-12,-39,-2,2,-2,9,17:39:19@14/4/2015,897847467,1098
0,9,-5,-12,-39,-2,2,-2,9,17:39:19@14/4/2015,897847468,1099
0,9,-5,-12,-39,-2,2,-2,9,17:39:19@14/4/2015,897847469,1100
0,9,-5,-12,-39,-2,2,-2,9,17:39:19@14/4/2015,897847470,1101
0,9,-5,-12,-39,-2,2,-2,9,17:39:19@14/4/2015,897847471,1102
0,9,-5,-12,-39,-2,2,-2,9,17:39:19@14/4/2015,897847472,1103
0,9,-5,-12,-39,-2,2,-2,9,17:39:19@14/4/2015,897847473,1104
0,9,-5,-12,-39,-2,2,-2,9,17:39:19@14/4/2015,897847474,1105
0,-11,0,17,53,0,-10,-2,-10,17:39:19@14/4/2015,897847475,1106
0,-11,0,17,53,0,-10,-2,-10,17:39:19@14/4/2015,897847476,1107
0,-11,0,17,53,0,-10,-2,-10,17:39:19@14/4/2015,897847477,1108
0,-11,0,17,53,0,-10,-2,-10,17:39:19@14/4/2015,897847478,1109
0,-11,0,17,53,0,-10,-2,-10,17:39:19@14/4/2015,897847479,1110
0,-11,0,17,53,0,-10,-2,-10,17:39:19@14/4/2015,897847480,1111
0,-11,0,17,53,0,-10,-2,-10,17:39:19@14/4/2015,897847481,1112
0,-11,0,17,53,0,-10,-2,-10,17:39:19@14/4/2015,897847482,1113
0,-11,0,17,53,0,-10,-2,-10,17:39:19@14/4/2015,897847483,1114
0,11,3,-9,-13,1,12,2,9,17:39:19@14/4/2015,897847484,1115
0,11,3,-9,-13,1,12,2,9,17:39:19@14/4/2015,897847485,1116
0,11,3,-9,-13,1,12,2,9,17:39:19@14/4/2015,897847486,1117
0,11,3,-9,-13,1,12,2,9,17:39:19@14/4/2015,897847487,1118
0,11,3,-9,-13,1,12,2,9,17:39:19@14/4/2015,897847488,1119
0,11,3,-9,-13,1,12,2,9,17:39:19@14/4/2015,897847489,1120
0,-3,-9,-9,-43,-39,-5,-1,1,17:39:19@14/4/2015,897847490,1121
0,-3,-9,-9,-43,-39,-5,-1,1,17:39:19@14/4/2015,897847491,1122
0,-3,-9,-9,-43,-39,-5,-1,1,17:39:19@14/4/2015,897847492,1123
0,-3,-9,-9,-43,-39,-5,-1,1,17:39:19@14/4/2015,897847493,1124
0,-3,-9,-9,-43,-39,-5,-1,1,17:39:19@14/4/2015,897847494,1125
0,-3,-9,-9,-43,-39,-5,-1,1,17:39:19@14/4/2015,897847495,1126
0,-3,-9,-9,-43,-39,-5,-1,1,17:39:19@14/4/2015,897847496,1127
0,-3,-9,-9,-43,-39,-5,-1,1,17:39:19@14/4/2015,897847497,1128
0,-3,-9,-9,-43,-39,-5,-1,1,17:39:19@14/4/2015,897847498,1129
0,-3,-9,-9,-43,-39,-5,-1,1,17:39:19@14/4/2015,897847499,1130
0,-3,-9,-9,-43,-39,-5,-1,1,17:39:19@14/4/2015,897847500,1131
0,-3,-9,-9,-43,-39,-5,-1,1,17:39:19@14/4/2015,897847501,1132
0,-3,-9,-9,-43,-39,-5,-1,1,17:39:19@14/4/2015,897847502,1133
0,-3,-9,-9,-43,-39,-5,-1,1,17:39:19@14/4/2015,897847503,1134
0,-3,-9,-9,-43,-39,-5,-1,1,17:39:19@14/4/2015,897847504,1135
0,4,1,21,28,42,-3,2,0,17:39:19@14/4/2015,897847505,1136
0,4,1,21,28,42,-3,2,0,17:39:19@14/4/2015,897847506,1137
0,4,1,21,28,42,-3,2,0,17:39:19@14/4/2015,897847507,1138
0,4,1,21,28,42,-3,2,0,17:39:19@14/4/2015,897847508,1139
0,4,1,21,28,42,-3,2,0,17:39:19@14/4/2015,897847509,1140
0,4,1,21,28,42,-3,2,0,17:39:19@14/4/2015,897847510,1141
0,4,1,21,28,42,-3,2,0,17:39:19@14/4/2015,897847511,1142
0,9,-2,-43,-24,4,1,1,5,17:39:19@14/4/2015,897847512,1143
0,9,-2,-43,-24,4,1,1,5,17:39:19@14/4/2015,897847513,1144
0,9,-2,-43,-24,4,1,1,5,17:39:19@14/4/2015,897847514,1145
0,9,-2,-43,-24,4,1,1,5,17:39:19@14/4/2015,897847515,1146
0,9,-2,-43,-24,4,1,1,5,17:39:19@14/4/2015,897847516,1147
0,9,-2,-43,-24,4,1,1,5,17:39:19@14/4/2015,897847517,1148
0,9,-2,-43,-24,4,1,1,5,17:39:19@14/4/2015,897847518,1149
0,9,-2,-43,-24,4,1,1,5,17:39:19@14/4/2015,897847519,1150
0,9,-2,-43,-24,4,1,1,5,17:39:19@14/4/2015,897847520,1151
0,-12,-6,87,101,6,-10,-10,-9,17:39:19@14/4/2015,897847521,1152
0,-12,-6,87,101,6,-10,-10,-9,17:39:19@14/4/2015,897847522,1153
0,-12,-6,87,101,6,-10,-10,-9,17:39:19@14/4/2015,897847523,1154
0,-12,-6,87,101,6,-10,-10,-9,17:39:19@14/4/2015,897847524,1155
0,-12,-6,87,101,6,-10,-10,-9,17:39:19@14/4/2015,897847525,1156
0,-12,-6,87,101,6,-10,-10,-9,17:39:19@14/4/2015,897847526,1157
0,-12,-6,87,101,6,-10,-10,-9,17:39:19@14/4/2015,897847527,1158
0,-12,-6,87,101,6,-10,-10,-9,17:39:19@14/4/2015,897847528,1159
0,-12,-6,87,101,6,-10,-10,-9,17:39:19@14/4/2015,897847529,1160
0,-12,-6,87,101,6,-10,-10,-9,17:39:19@14/4/2015,897847530,1161
0,-12,-6,87,101,6,-10,-10,-9,17:39:19@14/4/2015,897847531,1162
0,-12,-6,87,101,6,-10,-10,-9,17:39:19@14/4/2015,897847532,1163
0,-12,-6,87,101,6,-10,-10,-9,17:39:19@14/4/2015,897847533,1164
0,-12,-6,87,101,6,-10,-10,-9,17:39:19@14/4/2015,897847535,1166
0,2,-9,-27,-20,2,-5,-3,-2,17:39:19@14/4/2015,897847536,1167
0,2,-9,-27,-20,2,-5,-3,-2,17:39:19@14/4/2015,897847537,1168
0,2,-9,-27,-20,2,-5,-3,-2,17:39:19@14/4/2015,897847538,1169
0,2,-9,-27,-20,2,-5,-3,-2,17:39:19@14/4/2015,897847539,1170
0,2,-9,-27,-20,2,-5,-3,-2,17:39:19@14/4/2015,897847540,1171
0,2,-9,-27,-20,2,-5,-3,-2,17:39:19@14/4/2015,897847541,1172
0,2,-9,-27,-20,2,-5,-3,-2,17:39:19@14/4/2015,897847542,1173
0,2,-9,-27,-20,2,-5,-3,-2,17:39:19@14/4/2015,897847543,1174
0,20,30,3,41,47,20,18,16,17:39:19@14/4/2015,897847544,1175
0,20,30,3,41,47,20,18,16,17:39:19@14/4/2015,897847545,1176
0,20,30,3,41,47,20,18,16,17:39:19@14/4/2015,897847546,1177
0,20,30,3,41,47,20,18,16,17:39:19@14/4/2015,897847547,1178
0,20,30,3,41,47,20,18,16,17:39:19@14/4/2015,897847548,1179
0,20,30,3,41,47,20,18,16,17:39:19@14/4/2015,897847549,1180
0,-6,-17,-47,-112,-57,-11,-6,-4,17:39:19@14/4/2015,897847550,1181
0,-6,-17,-47,-112,-57,-11,-6,-4,17:39:19@14/4/2015,897847551,1182
0,-6,-17,-47,-112,-57,-11,-6,-4,17:39:19@14/4/2015,897847552,1183
0,-6,-17,-47,-112,-57,-11,-6,-4,17:39:19@14/4/2015,897847553,1184
0,-6,-17,-47,-112,-57,-11,-6,-4,17:39:19@14/4/2015,897847554,1185
0,-6,-17,-47,-112,-57,-11,-6,-4,17:39:19@14/4/2015,897847555,1186
0,-6,-17,-47,-112,-57,-11,-6,-4,17:39:19@14/4/2015,897847556,1187
0,-6,-17,-47,-112,-57,-11,-6,-4,17:39:19@14/4/2015,897847557,1188
0,-6,-17,-47,-112,-57,-11,-6,-4,17:39:19@14/4/2015,897847558,1189
0,-6,-17,-47,-112,-57,-11,-6,-4,17:39:19@14/4/2015,897847559,1190
0,-6,-17,-47,-112,-57,-11,-6,-4,17:39:19@14/4/2015,897847560,1191
0,-6,-17,-47,-112,-57,-11,-6,-4,17:39:19@14/4/2015,897847561,1192
0,-6,-17,-47,-112,-57,-11,-6,-4,17:39:19@14/4/2015,897847562,1193
0,-6,-17,-47,-112,-57,-11,-6,-4,17:39:19@14/4/2015,897847563,1194
0,-6,-17,-47,-112,-57,-11,-6,-4,17:39:19@14/4/2015,897847564,1195
0,0,2,-30,20,-23,-8,-5,-1,17:39:19@14/4/2015,897847565,1196
0,0,2,-30,20,-23,-8,-5,-1,17:39:19@14/4/2015,897847566,1197
0,0,2,-30,20,-23,-8,-5,-1,17:39:19@14/4/2015,897847567,1198
0,0,2,-30,20,-23,-8,-5,-1,17:39:19@14/4/2015,897847568,1199
0,0,2,-30,20,-23,-8,-5,-1,17:39:19@14/4/2015,897847569,1200
0,0,2,-30,20,-23,-8,-5,-1,17:39:19@14/4/2015,897847570,1201
0,0,2,-30,20,-23,-8,-5,-1,17:39:19@14/4/2015,897847571,1202
0,4,16,37,91,64,7,9,1,17:39:19@14/4/2015,897847572,1203
0,4,16,37,91,64,7,9,1,17:39:19@14/4/2015,897847573,1204
0,4,16,37,91,64,7,9,1,17:39:19@14/4/2015,897847574,1205
0,4,16,37,91,64,7,9,1,17:39:19@14/4/2015,897847575,1206
0,4,16,37,91,64,7,9,1,17:39:19@14/4/2015,897847576,1207
0,4,16,37,91,64,7,9,1,17:39:19@14/4/2015,897847577,1208
0,4,16,37,91,64,7,9,1,17:39:19@14/4/2015,897847578,1209
0,4,16,37,91,64,7,9,1,17:39:19@14/4/2015,897847579,1210
0,4,16,37,91,64,7,9,1,17:39:19@14/4/2015,897847580,1211
0,-5,-11,-4,18,-22,-11,-5,-5,17:39:19@14/4/2015,897847581,1212
0,-5,-11,-4,18,-22,-11,-5,-5,17:39:19@14/4/2015,897847582,1213
0,-5,-11,-4,18,-22,-11,-5,-5,17:39:19@14/4/2015,897847583,1214
0,-5,-11,-4,18,-22,-11,-5,-5,17:39:19@14/4/2015,897847584,1215
0,-5,-11,-4,18,-22,-11,-5,-5,17:39:19@14/4/2015,897847585,1216
0,-5,-11,-4,18,-22,-11,-5,-5,17:39:19@14/4/2015,897847586,1217
0,-5,-11,-4,18,-22,-11,-5,-5,17:39:19@14/4/2015,897847587,1218
0,-5,-11,-4,18,-22,-11,-5,-5,17:39:19@14/4/2015,897847588,1219
0,-5,-11,-4,18,-22,-11,-5,-5,17:39:19@14/4/2015,897847589,1220
0,-5,-11,-4,18,-22,-11,-5,-5,17:39:19@14/4/2015,897847590,1221
0,-5,-11,-4,18,-22,-11,-5,-5,17:39:19@14/4/2015,897847591,1222
0,-5,-11,-4,18,-22,-11,-5,-5,17:39:19@14/4/2015,897847592,1223
0,-5,-11,-4,18,-22,-11,-5,-5,17:39:19@14/4/2015,897847593,1224
0,-5,-11,-4,18,-22,-11,-5,-5,17:39:19@14/4/2015,897847594,1225
0,-4,-10,-24,-76,-38,-5,-7,-2,17:39:19@14/4/2015,897847595,1226
0,-4,-10,-24,-76,-38,-5,-7,-2,17:39:19@14/4/2015,897847596,1227
0,-4,-10,-24,-76,-38,-5,-7,-2,17:39:19@14/4/2015,897847597,1228
0,-4,-10,-24,-76,-38,-5,-7,-2,17:39:19@14/4/2015,897847598,1229
0,-4,-10,-24,-76,-38,-5,-7,-2,17:39:19@14/4/2015,897847599,1230
0,-4,-10,-24,-76,-38,-5,-7,-2,17:39:19@14/4/2015,897847600,1231
0,-4,-10,-24,-76,-38,-5,-7,-2,17:39:19@14/4/2015,897847601,1232
0,-4,-10,-24,-76,-38,-5,-7,-2,17:39:19@14/4/2015,897847602,1233
0,-4,-10,-24,-76,-38,-5,-7,-2,17:39:19@14/4/2015,897847603,1234
0,-4,-8,-28,-30,1,1,-6,0,17:39:19@14/4/2015,897847604,1235
0,-4,-8,-28,-30,1,1,-6,0,17:39:19@14/4/2015,897847605,1236
0,-4,-8,-28,-30,1,1,-6,0,17:39:19@14/4/2015,897847606,1237
0,-4,-8,-28,-30,1,1,-6,0,17:39:19@14/4/2015,897847607,1238
0,-4,-8,-28,-30,1,1,-6,0,17:39:19@14/4/2015,897847608,1239
0,-4,-8,-28,-30,1,1,-6,0,17:39:19@14/4/2015,897847609,1240
0,0,7,42,33,5,-7,6,-2,17:39:19@14/4/2015,897847610,1241
0,0,7,42,33,5,-7,6,-2,17:39:19@14/4/2015,897847611,1242
0,0,7,42,33,5,-7,6,-2,17:39:19@14/4/2015,897847612,1243
0,0,7,42,33,5,-7,6,-2,17:39:19@14/4/2015,897847613,1244
0,0,7,42,33,5,-7,6,-2,17:39:19@14/4/2015,897847614,1245
0,0,7,42,33,5,-7,6,-2,17:39:19@14/4/2015,897847615,1246
0,0,7,42,33,5,-7,6,-2,17:39:19@14/4/2015,897847616,1247
0,0,7,42,33,5,-7,6,-2,17:39:19@14/4/2015,897847617,1248
0,0,7,42,33,5,-7,6,-2,17:39:19@14/4/2015,897847618,1249
0,0,7,42,33,5,-7,6,-2,17:39:19@14/4/2015,897847619,1250
0,0,7,42,33,5,-7,6,-2,17:39:19@14/4/2015,897847620,1251
0,0,7,42,33,5,-7,6,-2,17:39:19@14/4/2015,897847621,1252
0,0,7,42,33,5,-7,6,-2,17:39:19@14/4/2015,897847622,1253
0,0,7,42,33,5,-7,6,-2,17:39:19@14/4/2015,897847623,1254
0,0,7,42,33,5,-7,6,-2,17:39:19@14/4/2015,897847624,1255
0,-5,-7,-27,-9,-27,-5,-7,-4,17:39:19@14/4/2015,897847625,1256
0,-5,-7,-27,-9,-27,-5,-7,-4,17:39:19@14/4/2015,897847626,1257
0,-5,-7,-27,-9,-27,-5,-7,-4,17:39:19@14/4/2015,897847627,1258
0,-5,-7,-27,-9,-27,-5,-7,-4,17:39:19@14/4/2015,897847628,1259
0,-5,-7,-27,-9,-27,-5,-7,-4,17:39:19@14/4/2015,897847629,1260
0,-5,-7,-27,-9,-27,-5,-7,-4,17:39:19@14/4/2015,897847630,1261
0,-5,-7,-27,-9,-27,-5,-7,-4,17:39:19@14/4/2015,897847631,1262
0,8,12,22,68,-5,5,6,5,17:39:19@14/4/2015,897847632,1263
0,8,12,22,68,-5,5,6,5,17:39:19@14/4/2015,897847633,1264
0,8,12,22,68,-5,5,6,5,17:39:19@14/4/2015,897847634,1265
0,8,12,22,68,-5,5,6,5,17:39:19@14/4/2015,897847635,1266
0,8,12,22,68,-5,5,6,5,17:39:19@14/4/2015,897847636,1267
0,8,12,22,68,-5,5,6,5,17:39:19@14/4/2015,897847637,1268
0,8,12,22,68,-5,5,6,5,17:39:19@14/4/2015,897847638,1269
0,8,12,22,68,-5,5,6,5,17:39:19@14/4/2015,897847639,1270
0,8,12,22,68,-5,5,6,5,17:39:19@14/4/2015,897847640,1271
0,3,3,0,-62,-11,0,2,4,17:39:19@14/4/2015,897847641,1272
0,3,3,0,-62,-11,0,2,4,17:39:19@14/4/2015,897847642,1273
0,3,3,0,-62,-11,0,2,4,17:39:19@14/4/2015,897847643,1274
0,3,3,0,-62,-11,0,2,4,17:39:19@14/4/2015,897847644,1275
0,3,3,0,-62,-11,0,2,4,17:39:19@14/4/2015,897847645,1276
0,3,3,0,-62,-11,0,2,4,17:39:19@14/4/2015,897847646,1277
0,3,3,0,-62,-11,0,2,4,17:39:19@14/4/2015,897847647,1278
0,3,3,0,-62,-11,0,2,4,17:39:19@14/4/2015,897847648,1279
0,3,3,0,-62,-11,0,2,4,17:39:19@14/4/2015,897847649,1280
0,3,3,0,-62,-11,0,2,4,17:39:19@14/4/2015,897847650,1281
0,3,3,0,-62,-11,0,2,4,17:39:19@14/4/2015,897847651,1282
0,3,3,0,-62,-11,0,2,4,17:39:19@14/4/2015,897847652,1283
0,3,3,0,-62,-11,0,2,4,17:39:19@14/4/2015,897847653,1284
0,3,3,0,-62,-11,0,2,4,17:39:19@14/4/2015,897847654,1285
0,0,-3,9,74,18,-4,-5,0,17:39:19@14/4/2015,897847655,1286
0,0,-3,9,74,18,-4,-5,0,17:39:19@14/4/2015,897847656,1287
0,0,-3,9,74,18,-4,-5,0,17:39:19@14/4/2015,897847657,1288
0,0,-3,9,74,18,-4,-5,0,17:39:19@14/4/2015,897847658,1289
0,0,-3,9,74,18,-4,-5,0,17:39:19@14/4/2015,897847659,1290
0,0,-3,9,74,18,-4,-5,0,17:39:19@14/4/2015,897847660,1291
0,0,-3,9,74,18,-4,-5,0,17:39:19@14/4/2015,897847661,1292
0,0,-3,9,74,18,-4,-5,0,17:39:19@14/4/2015,897847662,1293
0,0,-3,9,74,18,-4,-5,0,17:39:19@14/4/2015,897847663,1294
0,2,-2,-5,38,20,-1,-2,1,17:39:19@14/4/2015,897847664,1295
0,2,-2,-5,38,20,-1,-2,1,17:39:19@14/4/2015,897847665,1296
0,2,-2,-5,38,20,-1,-2,1,17:39:19@14/4/2015,897847666,1297
0,2,-2,-5,38,20,-1,-2,1,17:39:19@14/4/2015,897847667,1298
0,2,-2,-5,38,20,-1,-2,1,17:39:19@14/4/2015,897847668,1299
0,2,-2,-5,38,20,-1,-2,1,17:39:19@14/4/2015,897847669,1300
0,-3,-6,-27,-42,-19,2,24,2,17:39:19@14/4/2015,897847670,1301
0,-3,-6,-27,-42,-19,2,24,2,17:39:19@14/4/2015,897847671,1302
0,-3,-6,-27,-42,-19,2,24,2,17:39:19@14/4/2015,897847672,1303
0,-3,-6,-27,-42,-19,2,24,2,17:39:19@14/4/2015,897847673,1304
0,-3,-6,-27,-42,-19,2,24,2,17:39:19@14/4/2015,897847674,1305
0,-3,-6,-27,-42,-19,2,24,2,17:39:19@14/4/2015,897847675,1306
0,-3,-6,-27,-42,-19,2,24,2,17:39:19@14/4/2015,897847676,1307
0,-3,-6,-27,-42,-19,2,24,2,17:39:19@14/4/2015,897847677,1308
0,-3,-6,-27,-42,-19,2,24,2,17:39:19@14/4/2015,897847678,1309
0,-3,-6,-27,-42,-19,2,24,2,17:39:19@14/4/2015,897847679,1310
0,-3,-6,-27,-42,-19,2,24,2,17:39:19@14/4/2015,897847680,1311
0,-3,-6,-27,-42,-19,2,24,2,17:39:19@14/4/2015,897847681,1312
0,-3,-6,-27,-42,-19,2,24,2,17:39:19@14/4/2015,897847682,1313
0,-3,-6,-27,-42,-19,2,24,2,17:39:19@14/4/2015,897847683,1314
0,-3,-6,-27,-42,-19,2,24,2,17:39:19@14/4/2015,897847684,1315
0,12,18,33,33,50,13,10,6,17:39:19@14/4/2015,897847685,1316
0,12,18,33,33,50,13,10,6,17:39:19@14/4/2015,897847686,1317
0,12,18,33,33,50,13,10,6,17:39:19@14/4/2015,897847687,1318
0,12,18,33,33,50,13,10,6,17:39:19@14/4/2015,897847688,1319
0,12,18,33,33,50,13,10,6,17:39:19@14/4/2015,897847689,1320
0,12,18,33,33,50,13,10,6,17:39:19@14/4/2015,897847690,1321
0,12,18,33,33,50,13,10,6,17:39:19@14/4/2015,897847691,1322
0,-6,-10,-11,44,16,11,-8,-5,17:39:19@14/4/2015,897847692,1323
0,-6,-10,-11,44,16,11,-8,-5,17:39:19@14/4/2015,897847693,1324
0,-6,-10,-11,44,16,11,-8,-5,17:39:19@14/4/2015,897847694,1325
0,-6,-10,-11,44,16,11,-8,-5,17:39:19@14/4/2015,897847695,1326
0,-6,-10,-11,44,16,11,-8,-5,17:39:19@14/4/2015,897847696,1327
0,-6,-10,-11,44,16,11,-8,-5,17:39:19@14/4/2015,897847697,1328
0,-6,-10,-11,44,16,11,-8,-5,17:39:19@14/4/2015,897847698,1329
0,-6,-10,-11,44,16,11,-8,-5,17:39:19@14/4/2015,897847699,1330
0,-6,-10,-11,44,16,11,-8,-5,17:39:19@14/4/2015,897847700,1331
0,-6,-10,-11,44,16,11,-8,-5,17:39:19@14/4/2015,897847701,1332
4,-6,-10,-11,44,16,11,-8,-5,17:39:19@14/4/2015,897847702,1333
4,-12,-20,-21,20,19,-12,-15,-5,17:39:19@14/4/2015,897847703,1334
4,-12,-20,-21,20,19,-12,-15,-5,17:39:19@14/4/2015,897847704,1335
4,-12,-20,-21,20,19,-12,-15,-5,17:39:19@14/4/2015,897847705,1336
4,-12,-20,-21,20,19,-12,-15,-5,17:39:19@14/4/2015,897847706,1337
4,-12,-20,-21,20,19,-12,-15,-5,17:39:19@14/4/2015,897847707,1338
4,-12,-20,-21,20,19,-12,-15,-5,17:39:19@14/4/2015,897847708,1339
4,-12,-20,-21,20,19,-12,-15,-5,17:39:19@14/4/2015,897847709,1340
4,-12,-20,-21,20,19,-12,-15,-5,17:39:19@14/4/2015,897847710,1341
4,-12,-20,-21,20,19,-12,-15,-5,17:39:19@14/4/2015,897847711,1342
4,-12,-20,-21,20,19,-12,-15,-5,17:39:19@14/4/2015,897847712,1343
4,-12,-20,-21,20,19,-12,-15,-5,17:39:19@14/4/2015,897847713,1344
4,-12,-20,-21,20,19,-12,-15,-5,17:39:19@14/4/2015,897847714,1345
4,-12,-20,-21,20,19,-12,-15,-5,17:39:19@14/4/2015,897847715,1346
4,-12,-20,-21,20,19,-12,-15,-5,17:39:19@14/4/2015,897847716,1347
4,3,6,14,-36,3,2,1,2,17:39:19@14/4/2015,897847717,1348
4,3,6,14,-36,3,2,1,2,17:39:19@14/4/2015,897847718,1349
4,3,6,14,-36,3,2,1,2,17:39:19@14/4/2015,897847719,1350
4,3,6,14,-36,3,2,1,2,17:39:19@14/4/2015,897847720,1351
4,3,6,14,-36,3,2,1,2,17:39:19@14/4/2015,897847722,1353
4,3,6,14,-36,3,2,1,2,17:39:19@14/4/2015,897847723,1354
4,-9,-9,-27,-49,-38,-10,8,-6,17:39:19@14/4/2015,897847724,1355
4,-9,-9,-27,-49,-38,-10,8,-6,17:39:19@14/4/2015,897847725,1356
4,-9,-9,-27,-49,-38,-10,8,-6,17:39:19@14/4/2015,897847726,1357
4,-9,-9,-27,-49,-38,-10,8,-6,17:39:19@14/4/2015,897847727,1358
4,-9,-9,-27,-49,-38,-10,8,-6,17:39:19@14/4/2015,897847728,1359
4,-9,-9,-27,-49,-38,-10,8,-6,17:39:19@14/4/2015,897847729,1360
4,-9,-9,-27,-49,-38,-10,8,-6,17:39:19@14/4/2015,897847730,1361
4,5,-5,-3,-4,10,12,11,20,17:39:19@14/4/2015,897847731,1362
4,5,-5,-3,-4,10,12,11,20,17:39:19@14/4/2015,897847732,1363
4,5,-5,-3,-4,10,12,11,20,17:39:19@14/4/2015,897847733,1364
4,5,-5,-3,-4,10,12,11,20,17:39:19@14/4/2015,897847734,1365
4,5,-5,-3,-4,10,12,11,20,17:39:19@14/4/2015,897847735,1366
4,5,-5,-3,-4,10,12,11,20,17:39:19@14/4/2015,897847736,1367
4,5,-5,-3,-4,10,12,11,20,17:39:19@14/4/2015,897847737,1368
4,5,-5,-3,-4,10,12,11,20,17:39:19@14/4/2015,897847738,1369
4,5,-5,-3,-4,10,12,11,20,17:39:19@14/4/2015,897847739,1370
4,5,-5,-3,-4,10,12,11,20,17:39:19@14/4/2015,897847740,1371
4,5,-5,-3,-4,10,12,11,20,17:39:19@14/4/2015,897847741,1372
4,5,-5,-3,-4,10,12,11,20,17:39:19@14/4/2015,897847742,1373
4,5,-5,-3,-4,10,12,11,20,17:39:19@14/4/2015,897847743,1374
4,5,-5,-3,-4,10,12,11,20,17:39:19@14/4/2015,897847744,1375
4,-2,-3,-4,-56,-48,-10,3,-3,17:39:19@14/4/2015,897847745,1376
4,-2,-3,-4,-56,-48,-10,3,-3,17:39:19@14/4/2015,897847746,1377
4,-2,-3,-4,-56,-48,-10,3,-3,17:39:19@14/4/2015,897847747,1378
4,-2,-3,-4,-56,-48,-10,3,-3,17:39:19@14/4/2015,897847748,1379
4,-2,-3,-4,-56,-48,-10,3,-3,17:39:19@14/4/2015,897847749,1380
4,-2,-3,-4,-56,-48,-10,3,-3,17:39:19@14/4/2015,897847750,1381
4,-2,-3,-4,-56,-48,-10,3,-3,17:39:19@14/4/2015,897847751,1382
4,11,14,6,-30,-1,-1,5,1,17:39:19@14/4/2015,897847752,1383
4,11,14,6,-30,-1,-1,5,1,17:39:19@14/4/2015,897847753,1384
4,11,14,6,-30,-1,-1,5,1,17:39:19@14/4/2015,897847754,1385
4,11,14,6,-30,-1,-1,5,1,17:39:19@14/4/2015,897847755,1386
4,11,14,6,-30,-1,-1,5,1,17:39:19@14/4/2015,897847756,1387
4,11,14,6,-30,-1,-1,5,1,17:39:19@14/4/2015,897847757,1388
4,11,14,6,-30,-1,-1,5,1,17:39:19@14/4/2015,897847758,1389
4,11,14,6,-30,-1,-1,5,1,17:39:19@14/4/2015,897847759,1390
4,11,14,6,-30,-1,-1,5,1,17:39:19@14/4/2015,897847760,1391
4,0,0,-13,6,16,5,-17,-8,17:39:19@14/4/2015,897847761,1392
4,0,0,-13,6,16,5,-17,-8,17:39:19@14/4/2015,897847762,1393
4,0,0,-13,6,16,5,-17,-8,17:39:19@14/4/2015,897847763,1394
4,0,0,-13,6,16,5,-17,-8,17:39:19@14/4/2015,897847764,1395
4,0,0,-13,6,16,5,-17,-8,17:39:19@14/4/2015,897847765,1396
4,0,0,-13,6,16,5,-17,-8,17:39:19@14/4/2015,897847766,1397
4,0,0,-13,6,16,5,-17,-8,17:39:19@14/4/2015,897847767,1398
4,0,0,-13,6,16,5,-17,-8,17:39:19@14/4/2015,897847768,1399
4,0,0,-13,6,16,5,-17,-8,17:39:19@14/4/2015,897847769,1400
4,0,0,-13,6,16,5,-17,-8,17:39:19@14/4/2015,897847770,1401
4,0,0,-13,6,16,5,-17,-8,17:39:19@14/4/2015,897847771,1402
4,0,0,-13,6,16,5,-17,-8,17:39:19@14/4/2015,897847772,1403
4,0,0,-13,6,16,5,-17,-8,17:39:19@14/4/2015,897847773,1404
4,0,0,-13,6,16,5,-17,-8,17:39:19@14/4/2015,897847774,1405
4,-13,-11,-20,-28,-37,-34,-17,-17,17:39:19@14/4/2015,897847775,1406
4,-13,-11,-20,-28,-37,-34,-17,-17,17:39:19@14/4/2015,897847776,1407
4,-13,-11,-20,-28,-37,-34,-17,-17,17:39:19@14/4/2015,897847777,1408
4,-13,-11,-20,-28,-37,-34,-17,-17,17:39:19@14/4/2015,897847778,1409
4,-13,-11,-20,-28,-37,-34,-17,-17,17:39:19@14/4/2015,897847779,1410
4,-13,-11,-20,-28,-37,-34,-17,-17,17:39:19@14/4/2015,897847780,1411
4,-13,-11,-20,-28,-37,-34,-17,-17,17:39:19@14/4/2015,897847781,1412
4,-13,-11,-20,-28,-37,-34,-17,-17,17:39:19@14/4/2015,897847782,1413
4,-13,-11,-20,-28,-37,-34,-17,-17,17:39:19@14/4/2015,897847783,1414
4,-12,-1,6,-2,-31,-32,-10,-21,17:39:19@14/4/2015,897847784,1415
4,-12,-1,6,-2,-31,-32,-10,-21,17:39:19@14/4/2015,897847785,1416
4,-12,-1,6,-2,-31,-32,-10,-21,17:39:19@14/4/2015,897847786,1417
4,-12,-1,6,-2,-31,-32,-10,-21,17:39:19@14/4/2015,897847787,1418
4,-12,-1,6,-2,-31,-32,-10,-21,17:39:19@14/4/2015,897847788,1419
4,-12,-1,6,-2,-31,-32,-10,-21,17:39:19@14/4/2015,897847789,1420
4,6,12,34,24,43,11,15,-7,17:39:19@14/4/2015,897847790,1421
4,6,12,34,24,43,11,15,-7,17:39:19@14/4/2015,897847791,1422
4,6,12,34,24,43,11,15,-7,17:39:19@14/4/2015,897847792,1423
4,6,12,34,24,43,11,15,-7,17:39:19@14/4/2015,897847793,1424
4,6,12,34,24,43,11,15,-7,17:39:19@14/4/2015,897847794,1425
4,6,12,34,24,43,11,15,-7,17:39:19@14/4/2015,897847795,1426
4,6,12,34,24,43,11,15,-7,17:39:19@14/4/2015,897847796,1427
4,6,12,34,24,43,11,15,-7,17:39:19@14/4/2015,897847797,1428
4,6,12,34,24,43,11,15,-7,17:39:19@14/4/2015,897847798,1429
4,6,12,34,24,43,11,15,-7,17:39:19@14/4/2015,897847799,1430
4,6,12,34,24,43,11,15,-7,17:39:19@14/4/2015,897847800,1431
4,6,12,34,24,43,11,15,-7,17:39:19@14/4/2015,897847801,1432
4,6,12,34,24,43,11,15,-7,17:39:19@14/4/2015,897847802,1433
4,6,12,34,24,43,11,15,-7,17:39:19@14/4/2015,897847803,1434
4,6,12,34,24,43,11,15,-7,17:39:19@14/4/2015,897847804,1435
4,4,7,2,-27,-9,17,15,4,17:39:19@14/4/2015,897847805,1436
4,4,7,2,-27,-9,17,15,4,17:39:19@14/4/2015,897847806,1437
4,4,7,2,-27,-9,17,15,4,17:39:19@14/4/2015,897847807,1438
4,4,7,2,-27,-9,17,15,4,17:39:19@14/4/2015,897847808,1439
4,4,7,2,-27,-9,17,15,4,17:39:19@14/4/2015,897847809,1440
4,4,7,2,-27,-9,17,15,4,17:39:19@14/4/2015,897847810,1441
4,4,7,2,-27,-9,17,15,4,17:39:19@14/4/2015,897847811,1442
4,-4,8,8,26,3,-10,-19,-34,17:39:19@14/4/2015,897847812,1443
4,-4,8,8,26,3,-10,-19,-34,17:39:19@14/4/2015,897847813,1444
4,-4,8,8,26,3,-10,-19,-34,17:39:19@14/4/2015,897847814,1445
4,-4,8,8,26,3,-10,-19,-34,17:39:19@14/4/2015,897847815,1446
4,-4,8,8,26,3,-10,-19,-34,17:39:19@14/4/2015,897847816,1447
4,-4,8,8,26,3,-10,-19,-34,17:39:19@14/4/2015,897847817,1448
4,-4,8,8,26,3,-10,-19,-34,17:39:19@14/4/2015,897847818,1449
4,-4,8,8,26,3,-10,-19,-34,17:39:19@14/4/2015,897847819,1450
4,-4,8,8,26,3,-10,-19,-34,17:39:19@14/4/2015,897847820,1451
4,39,9,-6,-24,-13,11,40,93,17:39:19@14/4/2015,897847821,1452
4,39,9,-6,-24,-13,11,40,93,17:39:19@14/4/2015,897847822,1453
4,39,9,-6,-24,-13,11,40,93,17:39:19@14/4/2015,897847823,1454
4,39,9,-6,-24,-13,11,40,93,17:39:19@14/4/2015,897847824,1455
4,39,9,-6,-24,-13,11,40,93,17:39:19@14/4/2015,897847825,1456
4,39,9,-6,-24,-13,11,40,93,17:39:19@14/4/2015,897847826,1457
4,39,9,-6,-24,-13,11,40,93,17:39:19@14/4/2015,897847827,1458
4,39,9,-6,-24,-13,11,40,93,17:39:19@14/4/2015,897847828,1459
4,39,9,-6,-24,-13,11,40,93,17:39:19@14/4/2015,897847829,1460
4,39,9,-6,-24,-13,11,40,93,17:39:19@14/4/2015,897847830,1461
4,39,9,-6,-24,-13,11,40,93,17:39:19@14/4/2015,897847831,1462
4,39,9,-6,-24,-13,11,40,93,17:39:19@14/4/2015,897847832,1463
4,39,9,-6,-24,-13,11,40,93,17:39:19@14/4/2015,897847833,1464
4,39,9,-6,-24,-13,11,40,93,17:39:19@14/4/2015,897847834,1465
4,-14,-15,-18,-21,-21,-8,-21,1,17:39:19@14/4/2015,897847835,1466
4,-14,-15,-18,-21,-21,-8,-21,1,17:39:19@14/4/2015,897847836,1467
4,-14,-15,-18,-21,-21,-8,-21,1,17:39:19@14/4/2015,897847837,1468
4,-14,-15,-18,-21,-21,-8,-21,1,17:39:19@14/4/2015,897847838,1469
4,-14,-15,-18,-21,-21,-8,-21,1,17:39:19@14/4/2015,897847839,1470
4,-14,-15,-18,-21,-21,-8,-21,1,17:39:19@14/4/2015,897847840,1471
4,-14,-15,-18,-21,-21,-8,-21,1,17:39:19@14/4/2015,897847841,1472
4,-14,-15,-18,-21,-21,-8,-21,1,17:39:19@14/4/2015,897847842,1473
4,-14,-15,-18,-21,-21,-8,-21,1,17:39:19@14/4/2015,897847843,1474
4,-30,-15,-5,1,-3,-10,-50,-45,17:39:19@14/4/2015,897847844,1475
4,-30,-15,-5,1,-3,-10,-50,-45,17:39:19@14/4/2015,897847845,1476
4,-30,-15,-5,1,-3,-10,-50,-45,17:39:19@14/4/2015,897847846,1477
4,-30,-15,-5,1,-3,-10,-50,-45,17:39:19@14/4/2015,897847847,1478
4,-30,-15,-5,1,-3,-10,-50,-45,17:39:19@14/4/2015,897847848,1479
4,-30,-15,-5,1,-3,-10,-50,-45,17:39:19@14/4/2015,897847849,1480
4,13,7,3,-40,-13,-2,20,14,17:39:19@14/4/2015,897847850,1481
4,13,7,3,-40,-13,-2,20,14,17:39:19@14/4/2015,897847851,1482
4,13,7,3,-40,-13,-2,20,14,17:39:19@14/4/2015,897847852,1483
4,13,7,3,-40,-13,-2,20,14,17:39:19@14/4/2015,897847853,1484
4,13,7,3,-40,-13,-2,20,14,17:39:19@14/4/2015,897847854,1485
4,13,7,3,-40,-13,-2,20,14,17:39:19@14/4/2015,897847855,1486
4,13,7,3,-40,-13,-2,20,14,17:39:19@14/4/2015,897847856,1487
4,13,7,3,-40,-13,-2,20,14,17:39:19@14/4/2015,897847857,1488
4,13,7,3,-40,-13,-2,20,14,17:39:19@14/4/2015,897847858,1489
4,13,7,3,-40,-13,-2,20,14,17:39:19@14/4/2015,897847859,1490
4,13,7,3,-40,-13,-2,20,14,17:39:19@14/4/2015,897847860,1491
4,13,7,3,-40,-13,-2,20,14,17:39:19@14/4/2015,897847861,1492
4,13,7,3,-40,-13,-2,20,14,17:39:19@14/4/2015,897847862,1493
4,13,7,3,-40,-13,-2,20,14,17:39:19@14/4/2015,897847863,1494
4,13,7,3,-40,-13,-2,20,14,17:39:19@14/4/2015,897847864,1495
4,-3,-8,-8,-35,-26,5,16,2,17:39:19@14/4/2015,897847865,1496
4,-3,-8,-8,-35,-26,5,16,2,17:39:19@14/4/2015,897847866,1497
4,-3,-8,-8,-35,-26,5,16,2,17:39:19@14/4/2015,897847867,1498
4,-3,-8,-8,-35,-26,5,16,2,17:39:19@14/4/2015,897847868,1499
4,-3,-8,-8,-35,-26,5,16,2,17:39:19@14/4/2015,897847869,1500
4,-3,-8,-8,-35,-26,5,16,2,17:39:19@14/4/2015,897847870,1501
4,-3,-8,-8,-35,-26,5,16,2,17:39:19@14/4/2015,897847871,1502
4,-34,8,21,41,24,14,27,-1,17:39:19@14/4/2015,897847872,1503
4,-34,8,21,41,24,14,27,-1,17:39:19@14/4/2015,897847873,1504
4,-34,8,21,41,24,14,27,-1,17:39:19@14/4/2015,897847874,1505
4,-34,8,21,41,24,14,27,-1,17:39:19@14/4/2015,897847875,1506
4,-34,8,21,41,24,14,27,-1,17:39:19@14/4/2015,897847876,1507
4,-34,8,21,41,24,14,27,-1,17:39:19@14/4/2015,897847877,1508
4,-34,8,21,41,24,14,27,-1,17:39:19@14/4/2015,897847878,1509
4,-34,8,21,41,24,14,27,-1,17:39:19@14/4/2015,897847879,1510
4,-34,8,21,41,24,14,27,-1,17:39:19@14/4/2015,897847880,1511
4,7,6,12,1,36,3,37,17,17:39:19@14/4/2015,897847881,1512
4,7,6,12,1,36,3,37,17,17:39:19@14/4/2015,897847882,1513
4,7,6,12,1,36,3,37,17,17:39:19@14/4/2015,897847883,1514
4,7,6,12,1,36,3,37,17,17:39:19@14/4/2015,897847884,1515
4,7,6,12,1,36,3,37,17,17:39:19@14/4/2015,897847885,1516
4,7,6,12,1,36,3,37,17,17:39:19@14/4/2015,897847886,1517
4,7,6,12,1,36,3,37,17,17:39:19@14/4/2015,897847887,1518
4,7,6,12,1,36,3,37,17,17:39:19@14/4/2015,897847888,1519
4,7,6,12,1,36,3,37,17,17:39:19@14/4/2015,897847889,1520
4,7,6,12,1,36,3,37,17,17:39:19@14/4/2015,897847890,1521
4,7,6,12,1,36,3,37,17,17:39:19@14/4/2015,897847891,1522
4,7,6,12,1,36,3,37,17,17:39:19@14/4/2015,897847892,1523
4,7,6,12,1,36,3,37,17,17:39:19@14/4/2015,897847893,1524
4,7,6,12,1,36,3,37,17,17:39:19@14/4/2015,897847894,1525
4,-25,-37,-44,-3,-10,-18,-44,-6,17:39:19@14/4/2015,897847895,1526
4,-25,-37,-44,-3,-10,-18,-44,-6,17:39:19@14/4/2015,897847896,1527
4,-25,-37,-44,-3,-10,-18,-44,-6,17:39:19@14/4/2015,897847897,1528
4,-25,-37,-44,-3,-10,-18,-44,-6,17:39:19@14/4/2015,897847898,1529
4,-25,-37,-44,-3,-10,-18,-44,-6,17:39:19@14/4/2015,897847899,1530
4,-25,-37,-44,-3,-10,-18,-44,-6,17:39:19@14/4/2015,897847900,1531
4,-25,-37,-44,-3,-10,-18,-44,-6,17:39:19@14/4/2015,897847901,1532
4,-25,-37,-44,-3,-10,-18,-44,-6,17:39:19@14/4/2015,897847902,1533
4,-25,-37,-44,-3,-10,-18,-44,-6,17:39:19@14/4/2015,897847903,1534
0,-25,-37,-44,-3,-10,-18,-44,-6,17:39:19@14/4/2015,897847904,1535
0,37,20,19,5,5,11,-22,-10,17:39:19@14/4/2015,897847905,1536
0,37,20,19,5,5,11,-22,-10,17:39:19@14/4/2015,897847906,1537
0,37,20,19,5,5,11,-22,-10,17:39:19@14/4/2015,897847907,1538
0,37,20,19,5,5,11,-22,-10,17:39:19@14/4/2015,897847908,1539
0,37,20,19,5,5,11,-22,-10,17:39:19@14/4/2015,897847909,1540
0,-2,-10,-14,-32,-58,-10,-13,-2,17:39:19@14/4/2015,897847910,1541
0,-2,-10,-14,-32,-58,-10,-13,-2,17:39:19@14/4/2015,897847912,1543
0,-2,-10,-14,-32,-58,-10,-13,-2,17:39:19@14/4/2015,897847913,1544
0,-2,-10,-14,-32,-58,-10,-13,-2,17:39:19@14/4/2015,897847914,1545
0,-2,-10,-14,-32,-58,-10,-13,-2,17:39:19@14/4/2015,897847915,1546
0,-2,-10,-14,-32,-58,-10,-13,-2,17:39:19@14/4/2015,897847916,1547
0,-2,-10,-14,-32,-58,-10,-13,-2,17:39:19@14/4/2015,897847917,1548
0,-2,-10,-14,-32,-58,-10,-13,-2,17:39:19@14/4/2015,897847918,1549
0,-2,-10,-14,-32,-58,-10,-13,-2,17:39:19@14/4/2015,897847919,1550
0,-2,-10,-14,-32,-58,-10,-13,-2,17:39:19@14/4/2015,897847920,1551
0,-2,-10,-14,-32,-58,-10,-13,-2,17:39:19@14/4/2015,897847921,1552
0,-2,-10,-14,-32,-58,-10,-13,-2,17:39:19@14/4/2015,897847922,1553
0,-2,-10,-14,-32,-58,-10,-13,-2,17:39:19@14/4/2015,897847923,1554
0,-2,-10,-14,-32,-58,-10,-13,-2,17:39:19@14/4/2015,897847924,1555
0,-27,-9,8,61,16,-5,-37,-28,17:39:19@14/4/2015,897847925,1556
0,-27,-9,8,61,16,-5,-37,-28,17:39:19@14/4/2015,897847926,1557
0,-27,-9,8,61,16,-5,-37,-28,17:39:19@14/4/2015,897847927,1558
0,-27,-9,8,61,16,-5,-37,-28,17:39:19@14/4/2015,897847928,1559
0,-27,-9,8,61,16,-5,-37,-28,17:39:19@14/4/2015,897847929,1560
0,-27,-9,8,61,16,-5,-37,-28,17:39:19@14/4/2015,897847930,1561
0,-27,-9,8,61,16,-5,-37,-28,17:39:19@14/4/2015,897847931,1562
0,-5,-2,-3,10,1,-1,5,-4,17:39:19@14/4/2015,897847932,1563
0,-5,-2,-3,10,1,-1,5,-4,17:39:19@14/4/2015,897847933,1564
0,-5,-2,-3,10,1,-1,5,-4,17:39:19@14/4/2015,897847934,1565
0,-5,-2,-3,10,1,-1,5,-4,17:39:19@14/4/2015,897847935,1566
0,-5,-2,-3,10,1,-1,5,-4,17:39:19@14/4/2015,897847936,1567
0,-5,-2,-3,10,1,-1,5,-4,17:39:19@14/4/2015,897847937,1568
0,-5,-2,-3,10,1,-1,5,-4,17:39:19@14/4/2015,897847938,1569
0,-5,-2,-3,10,1,-1,5,-4,17:39:19@14/4/2015,897847939,1570
0,-5,-2,-3,10,1,-1,5,-4,17:39:19@14/4/2015,897847940,1571
0,4,3,1,-61,-1,-6,22,3,17:39:19@14/4/2015,897847941,1572
0,4,3,1,-61,-1,-6,22,3,17:39:19@14/4/2015,897847942,1573
0,4,3,1,-61,-1,-6,22,3,17:39:19@14/4/2015,897847943,1574
0,4,3,1,-61,-1,-6,22,3,17:39:19@14/4/2015,897847944,1575
0,4,3,1,-61,-1,-6,22,3,17:39:19@14/4/2015,897847945,1576
0,4,3,1,-61,-1,-6,22,3,17:39:19@14/4/2015,897847946,1577
0,4,3,1,-61,-1,-6,22,3,17:39:19@14/4/2015,897847947,1578
0,4,3,1,-61,-1,-6,22,3,17:39:19@14/4/2015,897847948,1579
0,4,3,1,-61,-1,-6,22,3,17:39:19@14/4/2015,897847949,1580
0,4,3,1,-61,-1,-6,22,3,17:39:19@14/4/2015,897847950,1581
0,4,3,1,-61,-1,-6,22,3,17:39:19@14/4/2015,897847951,1582
0,4,3,1,-61,-1,-6,22,3,17:39:19@14/4/2015,897847952,1583
0,4,3,1,-61,-1,-6,22,3,17:39:19@14/4/2015,897847953,1584
0,4,3,1,-61,-1,-6,22,3,17:39:19@14/4/2015,897847954,1585
0,6,10,21,-35,-10,0,9,1,17:39:19@14/4/2015,897847955,1586
0,6,10,21,-35,-10,0,9,1,17:39:19@14/4/2015,897847956,1587
0,6,10,21,-35,-10,0,9,1,17:39:19@14/4/2015,897847957,1588
0,6,10,21,-35,-10,0,9,1,17:39:19@14/4/2015,897847958,1589
0,6,10,21,-35,-10,0,9,1,17:39:19@14/4/2015,897847959,1590
0,6,10,21,-35,-10,0,9,1,17:39:19@14/4/2015,897847960,1591
0,6,10,21,-35,-10,0,9,1,17:39:19@14/4/2015,897847961,1592
0,6,10,21,-35,-10,0,9,1,17:39:19@14/4/2015,897847962,1593
0,6,10,21,-35,-10,0,9,1,17:39:19@14/4/2015,897847963,1594
0,-17,-13,-7,7,20,-2,-20,-5,17:39:19@14/4/2015,897847964,1595
0,-17,-13,-7,7,20,-2,-20,-5,17:39:19@14/4/2015,897847965,1596
0,-17,-13,-7,7,20,-2,-20,-5,17:39:19@14/4/2015,897847966,1597
0,-17,-13,-7,7,20,-2,-20,-5,17:39:19@14/4/2015,897847967,1598
0,-17,-13,-7,7,20,-2,-20,-5,17:39:19@14/4/2015,897847968,1599
0,-17,-13,-7,7,20,-2,-20,-5,17:39:19@14/4/2015,897847969,1600
0,9,4,4,2,6,5,-19,-13,17:39:19@14/4/2015,897847970,1601
0,9,4,4,2,6,5,-19,-13,17:39:19@14/4/2015,897847971,1602
0,9,4,4,2,6,5,-19,-13,17:39:19@14/4/2015,897847972,1603
0,9,4,4,2,6,5,-19,-13,17:39:19@14/4/2015,897847973,1604
0,9,4,4,2,6,5,-19,-13,17:39:19@14/4/2015,897847974,1605
0,9,4,4,2,6,5,-19,-13,17:39:19@14/4/2015,897847975,1606
0,9,4,4,2,6,5,-19,-13,17:39:19@14/4/2015,897847976,1607
0,9,4,4,2,6,5,-19,-13,17:39:19@14/4/2015,897847977,1608
0,9,4,4,2,6,5,-19,-13,17:39:19@14/4/2015,897847978,1609
0,9,4,4,2,6,5,-19,-13,17:39:19@14/4/2015,897847979,1610
0,9,4,4,2,6,5,-19,-13,17:39:19@14/4/2015,897847980,1611
0,9,4,4,2,6,5,-19,-13,17:39:19@14/4/2015,897847981,1612
0,9,4,4,2,6,5,-19,-13,17:39:19@14/4/2015,897847982,1613
0,9,4,4,2,6,5,-19,-13,17:39:19@14/4/2015,897847983,1614
0,9,4,4,2,6,5,-19,-13,17:39:19@14/4/2015,897847984,1615
0,-1,-2,-3,-1,5,8,4,0,17:39:19@14/4/2015,897847985,1616
0,-1,-2,-3,-1,5,8,4,0,17:39:19@14/4/2015,897847986,1617
0,-1,-2,-3,-1,5,8,4,0,17:39:19@14/4/2015,897847987,1618
0,-1,-2,-3,-1,5,8,4,0,17:39:19@14/4/2015,897847988,1619
0,-1,-2,-3,-1,5,8,4,0,17:39:19@14/4/2015,897847989,1620
0,-1,-2,-3,-1,5,8,4,0,17:39:19@14/4/2015,897847990,1621
0,-1,-2,-3,-1,5,8,4,0,17:39:19@14/4/2015,897847991,1622
0,8,14,4,-17,9,6,-4,-37,17:39:19@14/4/2015,897847992,1623
0,8,14,4,-17,9,6,-4,-37,17:39:19@14/4/2015,897847993,1624
0,8,14,4,-17,9,6,-4,-37,17:39:19@14/4/2015,897847994,1625
0,8,14,4,-17,9,6,-4,-37,17:39:19@14/4/2015,897847995,1626
0,8,14,4,-17,9,6,-4,-37,17:39:19@14/4/2015,897847996,1627
0,8,14,4,-17,9,6,-4,-37,17:39:19@14/4/2015,897847997,1628
0,8,14,4,-17,9,6,-4,-37,17:39:19@14/4/2015,897847998,1629
0,8,14,4,-17,9,6,-4,-37,17:39:19@14/4/2015,897847999,1630
0,8,14,4,-17,9,6,-4,-37,17:39:20@14/4/2015,897848000,1631
0,-21,-24,17,113,15,-4,19,-18,17:39:20@14/4/2015,897848001,1632
0,-21,-24,17,113,15,-4,19,-18,17:39:20@14/4/2015,897848002,1633
0,-21,-24,17,113,15,-4,19,-18,17:39:20@14/4/2015,897848003,1634
0,-21,-24,17,113,15,-4,19,-18,17:39:20@14/4/2015,897848004,1635
0,-21,-24,17,113,15,-4,19,-18,17:39:20@14/4/2015,897848005,1636
0,-21,-24,17,113,15,-4,19,-18,17:39:20@14/4/2015,897848006,1637
0,-21,-24,17,113,15,-4,19,-18,17:39:20@14/4/2015,897848007,1638
0,-21,-24,17,113,15,-4,19,-18,17:39:20@14/4/2015,897848008,1639
0,-21,-24,17,113,15,-4,19,-18,17:39:20@14/4/2015,897848009,1640
0,-21,-24,17,113,15,-4,19,-18,17:39:20@14/4/2015,897848010,1641
0,-21,-24,17,113,15,-4,19,-18,17:39:20@14/4/2015,897848011,1642
0,-21,-24,17,113,15,-4,19,-18,17:39:20@14/4/2015,897848012,1643
0,-21,-24,17,113,15,-4,19,-18,17:39:20@14/4/2015,897848013,1644
0,-21,-24,17,113,15,-4,19,-18,17:39:20@14/4/2015,897848014,1645
0,-2,-2,12,33,13,-5,-17,-17,17:39:20@14/4/2015,897848015,1646
0,-2,-2,12,33,13,-5,-17,-17,17:39:20@14/4/2015,897848016,1647
0,-2,-2,12,33,13,-5,-17,-17,17:39:20@14/4/2015,897848017,1648
0,-2,-2,12,33,13,-5,-17,-17,17:39:20@14/4/2015,897848018,1649
0,-2,-2,12,33,13,-5,-17,-17,17:39:20@14/4/2015,897848019,1650
0,-2,-2,12,33,13,-5,-17,-17,17:39:20@14/4/2015,897848020,1651
0,-2,-2,12,33,13,-5,-17,-17,17:39:20@14/4/2015,897848021,1652
0,-2,-2,12,33,13,-5,-17,-17,17:39:20@14/4/2015,897848022,1653
0,-2,-2,12,33,13,-5,-17,-17,17:39:20@14/4/2015,897848023,1654
0,-4,0,-6,-41,-4,0,-16,-34,17:39:20@14/4/2015,897848024,1655
0,-4,0,-6,-41,-4,0,-16,-34,17:39:20@14/4/2015,897848025,1656
0,-4,0,-6,-41,-4,0,-16,-34,17:39:20@14/4/2015,897848026,1657
0,-4,0,-6,-41,-4,0,-16,-34,17:39:20@14/4/2015,897848027,1658
0,-4,0,-6,-41,-4,0,-16,-34,17:39:20@14/4/2015,897848028,1659
0,-4,0,-6,-41,-4,0,-16,-34,17:39:20@14/4/2015,897848029,1660
0,7,-5,-7,0,-1,-3,-6,18,17:39:20@14/4/2015,897848030,1661
0,7,-5,-7,0,-1,-3,-6,18,17:39:20@14/4/2015,897848031,1662
0,7,-5,-7,0,-1,-3,-6,18,17:39:20@14/4/2015,897848032,1663
0,7,-5,-7,0,-1,-3,-6,18,17:39:20@14/4/2015,897848033,1664
0,7,-5,-7,0,-1,-3,-6,18,17:39:20@14/4/2015,897848034,1665
0,7,-5,-7,0,-1,-3,-6,18,17:39:20@14/4/2015,897848035,1666
0,7,-5,-7,0,-1,-3,-6,18,17:39:20@14/4/2015,897848036,1667
0,7,-5,-7,0,-1,-3,-6,18,17:39:20@14/4/2015,897848037,1668
0,7,-5,-7,0,-1,-3,-6,18,17:39:20@14/4/2015,897848038,1669
0,7,-5,-7,0,-1,-3,-6,18,17:39:20@14/4/2015,897848039,1670
0,7,-5,-7,0,-1,-3,-6,18,17:39:20@14/4/2015,897848040,1671
0,7,-5,-7,0,-1,-3,-6,18,17:39:20@14/4/2015,897848041,1672
0,7,-5,-7,0,-1,-3,-6,18,17:39:20@14/4/2015,897848042,1673
0,7,-5,-7,0,-1,-3,-6,18,17:39:20@14/4/2015,897848043,1674
0,7,-5,-7,0,-1,-3,-6,18,17:39:20@14/4/2015,897848044,1675
0,8,5,1,-15,-4,1,-5,22,17:39:20@14/4/2015,897848045,1676
0,8,5,1,-15,-4,1,-5,22,17:39:20@14/4/2015,897848046,1677
0,8,5,1,-15,-4,1,-5,22,17:39:20@14/4/2015,897848047,1678
0,8,5,1,-15,-4,1,-5,22,17:39:20@14/4/2015,897848048,1679
0,8,5,1,-15,-4,1,-5,22,17:39:20@14/4/2015,897848049,1680
0,8,5,1,-15,-4,1,-5,22,17:39:20@14/4/2015,897848050,1681
0,8,5,1,-15,-4,1,-5,22,17:39:20@14/4/2015,897848051,1682
0,55,6,8,4,11,22,81,21,17:39:20@14/4/2015,897848052,1683
0,55,6,8,4,11,22,81,21,17:39:20@14/4/2015,897848053,1684
0,55,6,8,4,11,22,81,21,17:39:20@14/4/2015,897848054,1685
0,55,6,8,4,11,22,81,21,17:39:20@14/4/2015,897848055,1686
0,55,6,8,4,11,22,81,21,17:39:20@14/4/2015,897848056,1687
0,55,6,8,4,11,22,81,21,17:39:20@14/4/2015,897848057,1688
0,55,6,8,4,11,22,81,21,17:39:20@14/4/2015,897848058,1689
0,55,6,8,4,11,22,81,21,17:39:20@14/4/2015,897848059,1690
0,55,6,8,4,11,22,81,21,17:39:20@14/4/2015,897848060,1691
0,35,-7,-3,-22,-30,-12,27,13,17:39:20@14/4/2015,897848061,1692
0,35,-7,-3,-22,-30,-12,27,13,17:39:20@14/4/2015,897848062,1693
0,35,-7,-3,-22,-30,-12,27,13,17:39:20@14/4/2015,897848063,1694
0,35,-7,-3,-22,-30,-12,27,13,17:39:20@14/4/2015,897848064,1695
0,35,-7,-3,-22,-30,-12,27,13,17:39:20@14/4/2015,897848065,1696
0,35,-7,-3,-22,-30,-12,27,13,17:39:20@14/4/2015,897848066,1697
0,35,-7,-3,-22,-30,-12,27,13,17:39:20@14/4/2015,897848067,1698
0,35,-7,-3,-22,-30,-12,27,13,17:39:20@14/4/2015,897848068,1699
0,35,-7,-3,-22,-30,-12,27,13,17:39:20@14/4/2015,897848069,1700
0,35,-7,-3,-22,-30,-12,27,13,17:39:20@14/4/2015,897848070,1701
0,35,-7,-3,-22,-30,-12,27,13,17:39:20@14/4/2015,897848071,1702
0,35,-7,-3,-22,-30,-12,27,13,17:39:20@14/4/2015,897848072,1703
0,35,-7,-3,-22,-30,-12,27,13,17:39:20@14/4/2015,897848073,1704
0,35,-7,-3,-22,-30,-12,27,13,17:39:20@14/4/2015,897848074,1705
0,-18,-34,-33,-32,-17,-22,-100,-23,17:39:20@14/4/2015,897848075,1706
0,-18,-34,-33,-32,-17,-22,-100,-23,17:39:20@14/4/2015,897848076,1707
0,-18,-34,-33,-32,-17,-22,-100,-23,17:39:20@14/4/2015,897848077,1708
0,-18,-34,-33,-32,-17,-22,-100,-23,17:39:20@14/4/2015,897848078,1709
0,-18,-34,-33,-32,-17,-22,-100,-23,17:39:20@14/4/2015,897848079,1710
0,-18,-34,-33,-32,-17,-22,-100,-23,17:39:20@14/4/2015,897848080,1711
0,-18,-34,-33,-32,-17,-22,-100,-23,17:39:20@14/4/2015,897848081,1712
0,-18,-34,-33,-32,-17,-22,-100,-23,17:39:20@14/4/2015,897848082,1713
0,-18,-34,-33,-32,-17,-22,-100,-23,17:39:20@14/4/2015,897848083,1714
0,-41,-4,-41,-47,-62,-23,-86,-102,17:39:20@14/4/2015,897848084,1715
0,-41,-4,-41,-47,-62,-23,-86,-102,17:39:20@14/4/2015,897848085,1716
0,-41,-4,-41,-47,-62,-23,-86,-102,17:39:20@14/4/2015,897848086,1717
0,-41,-4,-41,-47,-62,-23,-86,-102,17:39:20@14/4/2015,897848087,1718
0,-41,-4,-41,-47,-62,-23,-86,-102,17:39:20@14/4/2015,897848088,1719
0,-41,-4,-41,-47,-62,-23,-86,-102,17:39:20@14/4/2015,897848089,1720
0,-38,7,-20,-54,-29,-24,-25,-7,17:39:20@14/4/2015,897848090,1721
0,-38,7,-20,-54,-29,-24,-25,-7,17:39:20@14/4/2015,897848091,1722
0,-38,7,-20,-54,-29,-24,-25,-7,17:39:20@14/4/2015,897848092,1723
0,-38,7,-20,-54,-29,-24,-25,-7,17:39:20@14/4/2015,897848093,1724
0,-38,7,-20,-54,-29,-24,-25,-7,17:39:20@14/4/2015,897848094,1725
0,-38,7,-20,-54,-29,-24,-25,-7,17:39:20@14/4/2015,897848095,1726
0,-38,7,-20,-54,-29,-24,-25,-7,17:39:20@14/4/2015,897848096,1727
0,-38,7,-20,-54,-29,-24,-25,-7,17:39:20@14/4/2015,897848097,1728
0,-38,7,-20,-54,-29,-24,-25,-7,17:39:20@14/4/2015,897848098,1729
0,-38,7,-20,-54,-29,-24,-25,-7,17:39:20@14/4/2015,897848099,1730
0,-38,7,-20,-54,-29,-24,-25,-7,17:39:20@14/4/2015,897848100,1731
0,-38,7,-20,-54,-29,-24,-25,-7,17:39:20@14/4/2015,897848101,1732
0,-38,7,-20,-54,-29,-24,-25,-7,17:39:20@14/4/2015,897848102,1733
0,-38,7,-20,-54,-29,-24,-25,-7,17:39:20@14/4/2015,897848103,1734
0,-38,7,-20,-54,-29,-24,-25,-7,17:39:20@14/4/2015,897848104,1735
0,18,-7,6,24,20,-1,-11,82,17:39:20@14/4/2015,897848105,1736
0,18,-7,6,24,20,-1,-11,82,17:39:20@14/4/2015,897848106,1737
0,18,-7,6,24,20,-1,-11,82,17:39:20@14/4/2015,897848107,1738
0,18,-7,6,24,20,-1,-11,82,17:39:20@14/4/2015,897848108,1739
0,18,-7,6,24,20,-1,-11,82,17:39:20@14/4/2015,897848109,1740
0,18,-7,6,24,20,-1,-11,82,17:39:20@14/4/2015,897848110,1741
0,18,-7,6,24,20,-1,-11,82,17:39:20@14/4/2015,897848111,1742
0,-17,-4,-13,-3,-17,-9,19,-14,17:39:20@14/4/2015,897848112,1743
0,-17,-4,-13,-3,-17,-9,19,-14,17:39:20@14/4/2015,897848113,1744
0,-17,-4,-13,-3,-17,-9,19,-14,17:39:20@14/4/2015,897848114,1745
0,-17,-4,-13,-3,-17,-9,19,-14,17:39:20@14/4/2015,897848115,1746
0,-17,-4,-13,-3,-17,-9,19,-14,17:39:20@14/4/2015,897848116,1747
0,-17,-4,-13,-3,-17,-9,19,-14,17:39:20@14/4/2015,897848117,1748
0,-17,-4,-13,-3,-17,-9,19,-14,17:39:20@14/4/2015,897848118,1749
0,-17,-4,-13,-3,-17,-9,19,-14,17:39:20@14/4/2015,897848119,1750
0,-17,-4,-13,-3,-17,-9,19,-14,17:39:20@14/4/2015,897848120,1751
0,9,0,-5,-6,-3,-3,21,12,17:39:20@14/4/2015,897848121,1752
0,9,0,-5,-6,-3,-3,21,12,17:39:20@14/4/2015,897848122,1753
0,9,0,-5,-6,-3,-3,21,12,17:39:20@14/4/2015,897848123,1754
0,9,0,-5,-6,-3,-3,21,12,17:39:20@14/4/2015,897848124,1755
0,9,0,-5,-6,-3,-3,21,12,17:39:20@14/4/2015,897848125,1756
0,9,0,-5,-6,-3,-3,21,12,17:39:20@14/4/2015,897848126,1757
0,9,0,-5,-6,-3,-3,21,12,17:39:20@14/4/2015,897848127,1758
0,9,0,-5,-6,-3,-3,21,12,17:39:20@14/4/2015,897848128,1759
0,9,0,-5,-6,-3,-3,21,12,17:39:20@14/4/2015,897848129,1760
0,9,0,-5,-6,-3,-3,21,12,17:39:20@14/4/2015,897848130,1761
0,9,0,-5,-6,-3,-3,21,12,17:39:20@14/4/2015,897848131,1762
0,9,0,-5,-6,-3,-3,21,12,17:39:20@14/4/2015,897848132,1763
0,9,0,-5,-6,-3,-3,21,12,17:39:20@14/4/2015,897848133,1764
0,9,0,-5,-6,-3,-3,21,12,17:39:20@14/4/2015,897848134,1765
0,-31,-8,6,-11,13,0,33,47,17:39:20@14/4/2015,897848135,1766
0,-31,-8,6,-11,13,0,33,47,17:39:20@14/4/2015,897848136,1767
0,-31,-8,6,-11,13,0,33,47,17:39:20@14/4/2015,897848137,1768
0,-31,-8,6,-11,13,0,33,47,17:39:20@14/4/2015,897848138,1769
0,-31,-8,6,-11,13,0,33,47,17:39:20@14/4/2015,897848139,1770
0,-31,-8,6,-11,13,0,33,47,17:39:20@14/4/2015,897848140,1771
0,-31,-8,6,-11,13,0,33,47,17:39:20@14/4/2015,897848141,1772
0,-31,-8,6,-11,13,0,33,47,17:39:20@14/4/2015,897848142,1773
0,-31,-8,6,-11,13,0,33,47,17:39:20@14/4/2015,897848143,1774
0,-26,-14,-2,36,25,10,-2,-18,17:39:20@14/4/2015,897848144,1775
0,-26,-14,-2,36,25,10,-2,-18,17:39:20@14/4/2015,897848145,1776
0,-26,-14,-2,36,25,10,-2,-18,17:39:20@14/4/2015,897848146,1777
0,-26,-14,-2,36,25,10,-2,-18,17:39:20@14/4/2015,897848147,1778
0,-26,-14,-2,36,25,10,-2,-18,17:39:20@14/4/2015,897848148,1779
0,-26,-14,-2,36,25,10,-2,-18,17:39:20@14/4/2015,897848149,1780
0,13,9,7,5,74,24,-8,-9,17:39:20@14/4/2015,897848150,1781
0,13,9,7,5,74,24,-8,-9,17:39:20@14/4/2015,897848151,1782
0,13,9,7,5,74,24,-8,-9,17:39:20@14/4/2015,897848152,1783
0,13,9,7,5,74,24,-8,-9,17:39:20@14/4/2015,897848153,1784
0,13,9,7,5,74,24,-8,-9,17:39:20@14/4/2015,897848154,1785
0,13,9,7,5,74,24,-8,-9,17:39:20@14/4/2015,897848155,1786
0,13,9,7,5,74,24,-8,-9,17:39:20@14/4/2015,897848156,1787
0,13,9,7,5,74,24,-8,-9,17:39:20@14/4/2015,897848157,1788
0,13,9,7,5,74,24,-8,-9,17:39:20@14/4/2015,897848158,1789
0,13,9,7,5,74,24,-8,-9,17:39:20@14/4/2015,897848159,1790
0,13,9,7,5,74,24,-8,-9,17:39:20@14/4/2015,897848160,1791
0,13,9,7,5,74,24,-8,-9,17:39:20@14/4/2015,897848161,1792
0,13,9,7,5,74,24,-8,-9,17:39:20@14/4/2015,897848162,1793
0,13,9,7,5,74,24,-8,-9,17:39:20@14/4/2015,897848163,1794
0,13,9,7,5,74,24,-8,-9,17:39:20@14/4/2015,897848164,1795
0,13,8,1,1,-12,5,-7,8,17:39:20@14/4/2015,897848165,1796
0,13,8,1,1,-12,5,-7,8,17:39:20@14/4/2015,897848166,1797
0,13,8,1,1,-12,5,-7,8,17:39:20@14/4/2015,897848167,1798
0,13,8,1,1,-12,5,-7,8,17:39:20@14/4/2015,897848168,1799
0,13,8,1,1,-12,5,-7,8,17:39:20@14/4/2015,897848169,1800
0,13,8,1,1,-12,5,-7,8,17:39:20@14/4/2015,897848170,1801
0,13,8,1,1,-12,5,-7,8,17:39:20@14/4/2015,897848171,1802
0,6,13,7,7,-27,3,4,-4,17:39:20@14/4/2015,897848172,1803
0,6,13,7,7,-27,3,4,-4,17:39:20@14/4/2015,897848173,1804
0,6,13,7,7,-27,3,4,-4,17:39:20@14/4/2015,897848174,1805
0,6,13,7,7,-27,3,4,-4,17:39:20@14/4/2015,897848175,1806
0,6,13,7,7,-27,3,4,-4,17:39:20@14/4/2015,897848176,1807
0,6,13,7,7,-27,3,4,-4,17:39:20@14/4/2015,897848177,1808
0,6,13,7,7,-27,3,4,-4,17:39:20@14/4/2015,897848178,1809
0,6,13,7,7,-27,3,4,-4,17:39:20@14/4/2015,897848179,1810
0,6,13,7,7,-27,3,4,-4,17:39:20@14/4/2015,897848180,1811
0,6,13,7,7,-27,3,4,-4,17:39:20@14/4/2015,897848181,1812
0,6,13,7,7,-27,3,4,-4,17:39:20@14/4/2015,897848182,1813
0,6,13,7,7,-27,3,4,-4,17:39:20@14/4/2015,897848183,1814
0,6,13,7,7,-27,3,4,-4,17:39:20@14/4/2015,897848184,1815
0,6,13,7,7,-27,3,4,-4,17:39:20@14/4/2015,897848185,1816
0,6,13,7,7,-27,3,4,-4,17:39:20@14/4/2015,897848186,1817
0,7,8,8,-4,-2,5,21,12,17:39:20@14/4/2015,897848187,1818
0,7,8,8,-4,-2,5,21,12,17:39:20@14/4/2015,897848188,1819
0,7,8,8,-4,-2,5,21,12,17:39:20@14/4/2015,897848189,1820
0,7,8,8,-4,-2,5,21,12,17:39:20@14/4/2015,897848190,1821
0,7,8,8,-4,-2,5,21,12,17:39:20@14/4/2015,897848191,1822
0,7,8,8,-4,-2,5,21,12,17:39:20@14/4/2015,897848192,1823
0,7,8,8,-4,-2,5,21,12,17:39:20@14/4/2015,897848193,1824
0,7,8,8,-4,-2,5,21,12,17:39:20@14/4/2015,897848194,1825
0,-7,-13,-17,24,29,2,-9,-1,17:39:20@14/4/2015,897848195,1826
0,-7,-13,-17,24,29,2,-9,-1,17:39:20@14/4/2015,897848196,1827
0,-7,-13,-17,24,29,2,-9,-1,17:39:20@14/4/2015,897848197,1828
0,-7,-13,-17,24,29,2,-9,-1,17:39:20@14/4/2015,897848198,1829
0,-7,-13,-17,24,29,2,-9,-1,17:39:20@14/4/2015,897848199,1830
0,-7,-13,-17,24,29,2,-9,-1,17:39:20@14/4/2015,897848200,1831
0,-7,-13,-17,24,29,2,-9,-1,17:39:20@14/4/2015,897848201,1832
0,-7,-13,-17,24,29,2,-9,-1,17:39:20@14/4/2015,897848202,1833
0,-7,-13,-17,24,29,2,-9,-1,17:39:20@14/4/2015,897848203,1834
0,14,19,26,25,60,3,-7,-20,17:39:20@14/4/2015,897848204,1835
0,14,19,26,25,60,3,-7,-20,17:39:20@14/4/2015,897848205,1836
0,14,19,26,25,60,3,-7,-20,17:39:20@14/4/2015,897848206,1837
0,14,19,26,25,60,3,-7,-20,17:39:20@14/4/2015,897848207,1838
0,14,19,26,25,60,3,-7,-20,17:39:20@14/4/2015,897848208,1839
0,14,19,26,25,60,3,-7,-20,17:39:20@14/4/2015,897848209,1840
0,22,7,32,120,60,11,11,26,17:39:20@14/4/2015,897848210,1841
0,22,7,32,120,60,11,11,26,17:39:20@14/4/2015,897848211,1842
0,22,7,32,120,60,11,11,26,17:39:20@14/4/2015,897848212,1843
0,22,7,32,120,60,11,11,26,17:39:20@14/4/2015,897848213,1844
0,22,7,32,120,60,11,11,26,17:39:20@14/4/2015,897848214,1845
0,22,7,32,120,60,11,11,26,17:39:20@14/4/2015,897848215,1846
0,22,7,32,120,60,11,11,26,17:39:20@14/4/2015,897848216,1847
0,22,7,32,120,60,11,11,26,17:39:20@14/4/2015,897848217,1848
0,22,7,32,120,60,11,11,26,17:39:20@14/4/2015,897848218,1849
0,22,7,32,120,60,11,11,26,17:39:20@14/4/2015,897848219,1850
0,22,7,32,120,60,11,11,26,17:39:20@14/4/2015,897848220,1851
0,22,7,32,120,60,11,11,26,17:39:20@14/4/2015,897848221,1852
0,22,7,32,120,60,11,11,26,17:39:20@14/4/2015,897848222,1853
0,22,7,32,120,60,11,11,26,17:39:20@14/4/2015,897848223,1854
0,22,7,32,120,60,11,11,26,17:39:20@14/4/2015,897848224,1855
0,-15,-1,-7,-41,-12,5,-10,-8,17:39:20@14/4/2015,897848225,1856
0,-15,-1,-7,-41,-12,5,-10,-8,17:39:20@14/4/2015,897848226,1857
0,-15,-1,-7,-41,-12,5,-10,-8,17:39:20@14/4/2015,897848227,1858
0,-15,-1,-7,-41,-12,5,-10,-8,17:39:20@14/4/2015,897848228,1859
0,-15,-1,-7,-41,-12,5,-10,-8,17:39:20@14/4/2015,897848229,1860
0,-15,-1,-7,-41,-12,5,-10,-8,17:39:20@14/4/2015,897848230,1861
0,-15,-1,-7,-41,-12,5,-10,-8,17:39:20@14/4/2015,897848231,1862
0,14,2,-1,-5,-16,2,-15,11,17:39:20@14/4/2015,897848232,1863
0,14,2,-1,-5,-16,2,-15,11,17:39:20@14/4/2015,897848233,1864
0,14,2,-1,-5,-16,2,-15,11,17:39:20@14/4/2015,897848234,1865
0,14,2,-1,-5,-16,2,-15,11,17:39:20@14/4/2015,897848235,1866
0,14,2,-1,-5,-16,2,-15,11,17:39:20@14/4/2015,897848236,1867
0,14,2,-1,-5,-16,2,-15,11,17:39:20@14/4/2015,897848237,1868
0,14,2,-1,-5,-16,2,-15,11,17:39:20@14/4/2015,897848238,1869
0,14,2,-1,-5,-16,2,-15,11,17:39:20@14/4/2015,897848239,1870
0,14,2,-1,-5,-16,2,-15,11,17:39:20@14/4/2015,897848240,1871
0,14,2,-1,-5,-16,2,-15,11,17:39:20@14/4/2015,897848241,1872
0,14,2,-1,-5,-16,2,-15,11,17:39:20@14/4/2015,897848242,1873
0,14,2,-1,-5,-16,2,-15,11,17:39:20@14/4/2015,897848243,1874
0,14,2,-1,-5,-16,2,-15,11,17:39:20@14/4/2015,897848244,1875
0,14,2,-1,-5,-16,2,-15,11,17:39:20@14/4/2015,897848245,1876
0,14,2,-1,-5,-16,2,-15,11,17:39:20@14/4/2015,897848246,1877
0,-7,5,-2,-12,-13,-2,2,-6,17:39:20@14/4/2015,897848247,1878
0,-7,5,-2,-12,-13,-2,2,-6,17:39:20@14/4/2015,897848248,1879
0,-7,5,-2,-12,-13,-2,2,-6,17:39:20@14/4/2015,897848249,1880
0,-7,5,-2,-12,-13,-2,2,-6,17:39:20@14/4/2015,897848250,1881
0,-7,5,-2,-12,-13,-2,2,-6,17:39:20@14/4/2015,897848251,1882
0,-7,5,-2,-12,-13,-2,2,-6,17:39:20@14/4/2015,897848252,1883
0,-7,5,-2,-12,-13,-2,2,-6,17:39:20@14/4/2015,897848253,1884
0,-7,5,-2,-12,-13,-2,2,-6,17:39:20@14/4/2015,897848254,1885
0,1,1,9,-12,-1,20,-6,-6,17:39:20@14/4/2015,897848255,1886
0,1,1,9,-12,-1,20,-6,-6,17:39:20@14/4/2015,897848256,1887
0,1,1,9,-12,-1,20,-6,-6,17:39:20@14/4/2015,897848257,1888
0,1,1,9,-12,-1,20,-6,-6,17:39:20@14/4/2015,897848258,1889
0,1,1,9,-12,-1,20,-6,-6,17:39:20@14/4/2015,897848259,1890
0,1,1,9,-12,-1,20,-6,-6,17:39:20@14/4/2015,897848260,1891
0,1,1,9,-12,-1,20,-6,-6,17:39:20@14/4/2015,897848261,1892
0,1,1,9,-12,-1,20,-6,-6,17:39:20@14/4/2015,897848262,1893
0,1,1,9,-12,-1,20,-6,-6,17:39:20@14/4/2015,897848263,1894
0,-4,-4,-10,-7,39,-18,-10,-2,17:39:20@14/4/2015,897848264,1895
0,-4,-4,-10,-7,39,-18,-10,-2,17:39:20@14/4/2015,897848265,1896
0,-4,-4,-10,-7,39,-18,-10,-2,17:39:20@14/4/2015,897848266,1897
0,-4,-4,-10,-7,39,-18,-10,-2,17:39:20@14/4/2015,897848267,1898
0,-4,-4,-10,-7,39,-18,-10,-2,17:39:20@14/4/2015,897848268,1899
0,-4,-4,-10,-7,39,-18,-10,-2,17:39:20@14/4/2015,897848269,1900
0,-4,-4,-10,-7,39,-18,-10,-2,17:39:20@14/4/2015,897848270,1901
0,-4,-4,-10,-7,39,-18,-10,-2,17:39:20@14/4/2015,897848271,1902
0,-4,-4,-10,-7,39,-18,-10,-2,17:39:20@14/4/2015,897848272,1903
0,-4,-4,-10,-7,39,-18,-10,-2,17:39:20@14/4/2015,897848273,1904
0,-4,-4,-10,-7,39,-18,-10,-2,17:39:20@14/4/2015,897848274,1905
0,-4,-4,-10,-7,39,-18,-10,-2,17:39:20@14/4/2015,897848275,1906
0,-4,-4,-10,-7,39,-18,-10,-2,17:39:20@14/4/2015,897848276,1907
0,-4,-4,-10,-7,39,-18,-10,-2,17:39:20@14/4/2015,897848277,1908
0,6,4,-3,-27,-24,-37,-6,0,17:39:20@14/4/2015,897848278,1909
0,6,4,-3,-27,-24,-37,-6,0,17:39:20@14/4/2015,897848279,1910
0,6,4,-3,-27,-24,-37,-6,0,17:39:20@14/4/2015,897848280,1911
0,6,4,-3,-27,-24,-37,-6,0,17:39:20@14/4/2015,897848281,1912
0,6,4,-3,-27,-24,-37,-6,0,17:39:20@14/4/2015,897848282,1913
0,6,4,-3,-27,-24,-37,-6,0,17:39:20@14/4/2015,897848283,1914
0,6,4,-3,-27,-24,-37,-6,0,17:39:20@14/4/2015,897848284,1915
0,-4,-5,-6,-1,19,8,8,3,17:39:20@14/4/2015,897848285,1916
0,-4,-5,-6,-1,19,8,8,3,17:39:20@14/4/2015,897848286,1917
0,-4,-5,-6,-1,19,8,8,3,17:39:20@14/4/2015,897848287,1918
0,-4,-5,-6,-1,19,8,8,3,17:39:20@14/4/2015,897848288,1919
0,-4,-5,-6,-1,19,8,8,3,17:39:20@14/4/2015,897848289,1920
0,-4,-5,-6,-1,19,8,8,3,17:39:20@14/4/2015,897848290,1921
0,-4,-5,-6,-1,19,8,8,3,17:39:20@14/4/2015,897848291,1922
0,3,-2,-8,-25,-37,-7,5,-2,17:39:20@14/4/2015,897848292,1923
0,3,-2,-8,-25,-37,-7,5,-2,17:39:20@14/4/2015,897848293,1924
0,3,-2,-8,-25,-37,-7,5,-2,17:39:20@14/4/2015,897848294,1925
0,3,-2,-8,-25,-37,-7,5,-2,17:39:20@14/4/2015,897848295,1926
0,3,-2,-8,-25,-37,-7,5,-2,17:39:20@14/4/2015,897848296,1927
0,3,-2,-8,-25,-37,-7,5,-2,17:39:20@14/4/2015,897848297,1928
0,3,-2,-8,-25,-37,-7,5,-2,17:39:20@14/4/2015,897848298,1929
0,3,-2,-8,-25,-37,-7,5,-2,17:39:20@14/4/2015,897848299,1930
0,3,-2,-8,-25,-37,-7,5,-2,17:39:20@14/4/2015,897848300,1931
0,3,-2,-8,-25,-37,-7,5,-2,17:39:20@14/4/2015,897848301,1932
0,3,-2,-8,-25,-37,-7,5,-2,17:39:20@14/4/2015,897848302,1933
0,3,-2,-8,-25,-37,-7,5,-2,17:39:20@14/4/2015,897848303,1934
0,3,-2,-8,-25,-37,-7,5,-2,17:39:20@14/4/2015,897848304,1935
0,3,-2,-8,-25,-37,-7,5,-2,17:39:20@14/4/2015,897848305,1936
0,3,-2,-8,-25,-37,-7,5,-2,17:39:20@14/4/2015,897848306,1937
0,-4,-13,-10,-30,-53,-3,-4,-2,17:39:20@14/4/2015,897848307,1938
0,-4,-13,-10,-30,-53,-3,-4,-2,17:39:20@14/4/2015,897848308,1939
0,-4,-13,-10,-30,-53,-3,-4,-2,17:39:20@14/4/2015,897848309,1940
0,-4,-13,-10,-30,-53,-3,-4,-2,17:39:20@14/4/2015,897848310,1941
0,-4,-13,-10,-30,-53,-3,-4,-2,17:39:20@14/4/2015,897848311,1942
0,-4,-13,-10,-30,-53,-3,-4,-2,17:39:20@14/4/2015,897848312,1943
0,-4,-13,-10,-30,-53,-3,-4,-2,17:39:20@14/4/2015,897848313,1944
0,-4,-13,-10,-30,-53,-3,-4,-2,17:39:20@14/4/2015,897848314,1945
0,-11,-13,-10,0,-58,-3,6,-10,17:39:20@14/4/2015,897848315,1946
0,-11,-13,-10,0,-58,-3,6,-10,17:39:20@14/4/2015,897848316,1947
0,-11,-13,-10,0,-58,-3,6,-10,17:39:20@14/4/2015,897848317,1948
0,-11,-13,-10,0,-58,-3,6,-10,17:39:20@14/4/2015,897848318,1949
0,-11,-13,-10,0,-58,-3,6,-10,17:39:20@14/4/2015,897848319,1950
0,-11,-13,-10,0,-58,-3,6,-10,17:39:20@14/4/2015,897848320,1951
0,-11,-13,-10,0,-58,-3,6,-10,17:39:20@14/4/2015,897848321,1952
0,-11,-13,-10,0,-58,-3,6,-10,17:39:20@14/4/2015,897848322,1953
0,-11,-13,-10,0,-58,-3,6,-10,17:39:20@14/4/2015,897848323,1954
0,-1,8,-4,-38,-30,-5,6,1,17:39:20@14/4/2015,897848324,1955
0,-1,8,-4,-38,-30,-5,6,1,17:39:20@14/4/2015,897848325,1956
0,-1,8,-4,-38,-30,-5,6,1,17:39:20@14/4/2015,897848326,1957
0,-1,8,-4,-38,-30,-5,6,1,17:39:20@14/4/2015,897848327,1958
0,-1,8,-4,-38,-30,-5,6,1,17:39:20@14/4/2015,897848328,1959
0,-1,8,-4,-38,-30,-5,6,1,17:39:20@14/4/2015,897848329,1960
0,-1,8,-4,-38,-30,-5,6,1,17:39:20@14/4/2015,897848330,1961
0,-1,8,-4,-38,-30,-5,6,1,17:39:20@14/4/2015,897848331,1962
0,-1,8,-4,-38,-30,-5,6,1,17:39:20@14/4/2015,897848332,1963
0,-1,8,-4,-38,-30,-5,6,1,17:39:20@14/4/2015,897848333,1964
0,-1,8,-4,-38,-30,-5,6,1,17:39:20@14/4/2015,897848334,1965
0,-1,8,-4,-38,-30,-5,6,1,17:39:20@14/4/2015,897848335,1966
0,-1,8,-4,-38,-30,-5,6,1,17:39:20@14/4/2015,897848336,1967
0,-1,8,-4,-38,-30,-5,6,1,17:39:20@14/4/2015,897848337,1968
0,5,2,2,-5,11,2,4,3,17:39:20@14/4/2015,897848338,1969
0,5,2,2,-5,11,2,4,3,17:39:20@14/4/2015,897848339,1970
0,5,2,2,-5,11,2,4,3,17:39:20@14/4/2015,897848340,1971
0,5,2,2,-5,11,2,4,3,17:39:20@14/4/2015,897848341,1972
0,5,2,2,-5,11,2,4,3,17:39:20@14/4/2015,897848342,1973
0,5,2,2,-5,11,2,4,3,17:39:20@14/4/2015,897848343,1974
0,5,2,2,-5,11,2,4,3,17:39:20@14/4/2015,897848344,1975
0,-5,-4,-2,9,6,0,-7,-1,17:39:20@14/4/2015,897848345,1976
0,-5,-4,-2,9,6,0,-7,-1,17:39:20@14/4/2015,897848346,1977
0,-5,-4,-2,9,6,0,-7,-1,17:39:20@14/4/2015,897848347,1978
0,-5,-4,-2,9,6,0,-7,-1,17:39:20@14/4/2015,897848348,1979
0,-5,-4,-2,9,6,0,-7,-1,17:39:20@14/4/2015,897848349,1980
0,-5,-4,-2,9,6,0,-7,-1,17:39:20@14/4/2015,897848350,1981
0,-5,-4,-2,9,6,0,-7,-1,17:39:20@14/4/2015,897848351,1982
0,3,7,10,2,20,8,50,7,17:39:20@14/4/2015,897848352,1983
0,3,7,10,2,20,8,50,7,17:39:20@14/4/2015,897848353,1984
0,3,7,10,2,20,8,50,7,17:39:20@14/4/2015,897848354,1985
0,3,7,10,2,20,8,50,7,17:39:20@14/4/2015,897848355,1986
0,3,7,10,2,20,8,50,7,17:39:20@14/4/2015,897848356,1987
0,3,7,10,2,20,8,50,7,17:39:20@14/4/2015,897848357,1988
0,3,7,10,2,20,8,50,7,17:39:20@14/4/2015,897848358,1989
0,3,7,10,2,20,8,50,7,17:39:20@14/4/2015,897848359,1990
0,3,7,10,2,20,8,50,7,17:39:20@14/4/2015,897848360,1991
0,3,7,10,2,20,8,50,7,17:39:20@14/4/2015,897848361,1992
0,3,7,10,2,20,8,50,7,17:39:20@14/4/2015,897848362,1993
0,3,7,10,2,20,8,50,7,17:39:20@14/4/2015,897848363,1994
0,3,7,10,2,20,8,50,7,17:39:20@14/4/2015,897848364,1995
0,3,7,10,2,20,8,50,7,17:39:20@14/4/2015,897848365,1996
0,3,7,10,2,20,8,50,7,17:39:20@14/4/2015,897848366,1997
0,3,7,10,2,20,8,50,7,17:39:20@14/4/2015,897848367,1998
2,3,7,10,2,20,8,50,7,17:39:20@14/4/2015,897848368,1999
2,-2,-6,-11,17,-54,-7,-3,-3,17:39:20@14/4/2015,897848369,2000
2,-2,-6,-11,17,-54,-7,-3,-3,17:39:20@14/4/2015,897848370,2001
2,-2,-6,-11,17,-54,-7,-3,-3,17:39:20@14/4/2015,897848371,2002
2,-2,-6,-11,17,-54,-7,-3,-3,17:39:20@14/4/2015,897848372,2003
2,-2,-6,-11,17,-54,-7,-3,-3,17:39:20@14/4/2015,897848373,2004
2,-2,-6,-11,17,-54,-7,-3,-3,17:39:20@14/4/2015,897848374,2005
2,7,16,32,25,74,3,-4,-1,17:39:20@14/4/2015,897848375,2006
2,7,16,32,25,74,3,-4,-1,17:39:20@14/4/2015,897848376,2007
2,7,16,32,25,74,3,-4,-1,17:39:20@14/4/2015,897848377,2008
2,7,16,32,25,74,3,-4,-1,17:39:20@14/4/2015,897848378,2009
2,7,16,32,25,74,3,-4,-1,17:39:20@14/4/2015,897848379,2010
2,7,16,32,25,74,3,-4,-1,17:39:20@14/4/2015,897848380,2011
2,7,16,32,25,74,3,-4,-1,17:39:20@14/4/2015,897848381,2012
2,7,16,32,25,74,3,-4,-1,17:39:20@14/4/2015,897848382,2013
2,7,16,32,25,74,3,-4,-1,17:39:20@14/4/2015,897848383,2014
2,7,16,32,25,74,3,-4,-1,17:39:20@14/4/2015,897848384,2015
2,7,16,32,25,74,3,-4,-1,17:39:20@14/4/2015,897848385,2016
2,7,16,32,25,74,3,-4,-1,17:39:20@14/4/2015,897848386,2017
2,7,16,32,25,74,3,-4,-1,17:39:20@14/4/2015,897848387,2018
2,7,16,32,25,74,3,-4,-1,17:39:20@14/4/2015,897848388,2019
2,7,16,32,25,74,3,-4,-1,17:39:20@14/4/2015,897848389,2020
2,1,3,-2,3,-20,-5,3,-2,17:39:20@14/4/2015,897848390,2021
2,1,3,-2,3,-20,-5,3,-2,17:39:20@14/4/2015,897848391,2022
2,1,3,-2,3,-20,-5,3,-2,17:39:20@14/4/2015,897848392,2023
2,1,3,-2,3,-20,-5,3,-2,17:39:20@14/4/2015,897848393,2024
2,1,3,-2,3,-20,-5,3,-2,17:39:20@14/4/2015,897848394,2025
2,1,3,-2,3,-20,-5,3,-2,17:39:20@14/4/2015,897848395,2026
2,1,3,-2,3,-20,-5,3,-2,17:39:20@14/4/2015,897848396,2027
2,1,3,-2,3,-20,-5,3,-2,17:39:20@14/4/2015,897848397,2028
2,1,3,-2,3,-20,-5,3,-2,17:39:20@14/4/2015,897848398,2029
2,-14,-29,-61,-20,-128,-2,-24,-5,17:39:20@14/4/2015,897848399,2030
2,-14,-29,-61,-20,-128,-2,-24,-5,17:39:20@14/4/2015,897848400,2031
2,-14,-29,-61,-20,-128,-2,-24,-5,17:39:20@14/4/2015,897848401,2032
2,-14,-29,-61,-20,-128,-2,-24,-5,17:39:20@14/4/2015,897848402,2033
2,-14,-29,-61,-20,-128,-2,-24,-5,17:39:20@14/4/2015,897848403,2034
2,-14,-29,-61,-20,-128,-2,-24,-5,17:39:20@14/4/2015,897848404,2035
2,5,16,36,46,109,-11,-15,-1,17:39:20@14/4/2015,897848405,2036
2,5,16,36,46,109,-11,-15,-1,17:39:20@14/4/2015,897848406,2037
2,5,16,36,46,109,-11,-15,-1,17:39:20@14/4/2015,897848407,2038
2,5,16,36,46,109,-11,-15,-1,17:39:20@14/4/2015,897848408,2039
2,5,16,36,46,109,-11,-15,-1,17:39:20@14/4/2015,897848409,2040
2,5,16,36,46,109,-11,-15,-1,17:39:20@14/4/2015,897848410,2041
2,5,16,36,46,109,-11,-15,-1,17:39:20@14/4/2015,897848411,2042
2,16,24,48,44,67,13,-3,17,17:39:20@14/4/2015,897848412,2043
2,16,24,48,44,67,13,-3,17,17:39:20@14/4/2015,897848413,2044
2,16,24,48,44,67,13,-3,17,17:39:20@14/4/2015,897848414,2045
