id,#0,#1,#2,#3,#4,#5,#6,#7,time,millisecond
-1,0,0,0,0,0,0,0,0,21:53:1@15/4/2015,999469479 
-1,0,0,0,0,0,0,0,0,21:53:1@15/4/2015,999469480 
-1,0,0,0,0,0,0,0,0,21:53:1@15/4/2015,999469481 
-1,0,0,0,0,0,0,0,0,21:53:1@15/4/2015,999469482 
-1,0,0,0,0,0,0,0,0,21:53:1@15/4/2015,999469483 
-1,0,0,0,0,0,0,0,0,21:53:1@15/4/2015,999469484 
-1,0,0,0,0,0,0,0,0,21:53:1@15/4/2015,999469485 
-1,0,0,0,0,0,0,0,0,21:53:1@15/4/2015,999469486 
-1,0,0,0,0,0,0,0,0,21:53:1@15/4/2015,999469487 
-1,0,0,0,0,0,0,0,0,21:53:1@15/4/2015,999469488 
-1,0,0,0,0,0,0,0,0,21:53:1@15/4/2015,999469489 
-1,0,0,0,0,0,0,0,0,21:53:1@15/4/2015,999469490 
-1,0,0,0,0,0,0,0,0,21:53:1@15/4/2015,999469491 
-1,0,0,0,0,0,0,0,0,21:53:1@15/4/2015,999469492 
-1,0,0,0,0,0,0,0,0,21:53:1@15/4/2015,999469493 
-1,0,0,0,0,0,0,0,0,21:53:1@15/4/2015,999469494 
-1,0,0,0,0,0,0,0,0,21:53:1@15/4/2015,999469495 
-1,0,0,0,0,0,0,0,0,21:53:1@15/4/2015,999469496 
-1,0,0,0,0,0,0,0,0,21:53:1@15/4/2015,999469497 
-1,0,0,0,0,0,0,0,0,21:53:1@15/4/2015,999469498 
-1,0,0,0,0,0,0,0,0,21:53:1@15/4/2015,999469499 
-1,0,0,0,0,0,0,0,0,21:53:1@15/4/2015,999469500 
-1,0,0,0,0,0,0,0,0,21:53:1@15/4/2015,999469501 
-1,0,0,0,0,0,0,0,0,21:53:1@15/4/2015,999469502 
-1,0,0,0,0,0,0,0,0,21:53:1@15/4/2015,999469503 
-1,0,0,0,0,0,0,0,0,21:53:1@15/4/2015,999469504 
-1,0,0,0,0,0,0,0,0,21:53:1@15/4/2015,999469505 
-1,0,0,0,0,0,0,0,0,21:53:1@15/4/2015,999469506 
-1,0,0,0,0,0,0,0,0,21:53:1@15/4/2015,999469507 
-1,0,0,0,0,0,0,0,0,21:53:1@15/4/2015,999469508 
-1,0,0,0,0,0,0,0,0,21:53:1@15/4/2015,999469509 
-1,0,0,0,0,0,0,0,0,21:53:1@15/4/2015,999469510 
-1,0,0,0,0,0,0,0,0,21:53:1@15/4/2015,999469511 
-1,0,0,0,0,0,0,0,0,21:53:1@15/4/2015,999469512 
-1,0,0,0,0,0,0,0,0,21:53:1@15/4/2015,999469513 
-1,0,0,0,0,0,0,0,0,21:53:1@15/4/2015,999469514 
-1,0,0,0,0,0,0,0,0,21:53:1@15/4/2015,999469515 
-1,0,0,0,0,0,0,0,0,21:53:1@15/4/2015,999469516 
-1,0,0,0,0,0,0,0,0,21:53:1@15/4/2015,999469517 
-1,0,0,0,0,0,0,0,0,21:53:1@15/4/2015,999469518 
-1,0,0,0,0,0,0,0,0,21:53:1@15/4/2015,999469519 
-1,0,0,0,0,0,0,0,0,21:53:1@15/4/2015,999469520 
-1,0,0,0,0,0,0,0,0,21:53:1@15/4/2015,999469521 
-1,0,0,0,0,0,0,0,0,21:53:1@15/4/2015,999469522 
-1,0,0,0,0,0,0,0,0,21:53:1@15/4/2015,999469523 
-1,0,0,0,0,0,0,0,0,21:53:1@15/4/2015,999469524 
-1,0,0,0,0,0,0,0,0,21:53:1@15/4/2015,999469525 
-1,0,0,0,0,0,0,0,0,21:53:1@15/4/2015,999469526 
-1,0,0,0,0,0,0,0,0,21:53:1@15/4/2015,999469527 
-1,0,0,0,0,0,0,0,0,21:53:1@15/4/2015,999469528 
-1,0,0,0,0,0,0,0,0,21:53:1@15/4/2015,999469529 
-1,0,0,0,0,0,0,0,0,21:53:1@15/4/2015,999469530 
-1,0,0,0,0,0,0,0,0,21:53:1@15/4/2015,999469531 
-1,0,0,0,0,0,0,0,0,21:53:1@15/4/2015,999469532 
-1,0,0,0,0,0,0,0,0,21:53:1@15/4/2015,999469533 
-1,0,0,0,0,0,0,0,0,21:53:1@15/4/2015,999469534 
-1,0,0,0,0,0,0,0,0,21:53:1@15/4/2015,999469535 
-1,0,0,0,0,0,0,0,0,21:53:1@15/4/2015,999469536 
-1,0,0,0,0,0,0,0,0,21:53:1@15/4/2015,999469537 
-1,0,0,0,0,0,0,0,0,21:53:1@15/4/2015,999469538 
-1,0,0,0,0,0,0,0,0,21:53:1@15/4/2015,999469539 
-1,0,0,0,0,0,0,0,0,21:53:1@15/4/2015,999469540 
-1,0,0,0,0,0,0,0,0,21:53:1@15/4/2015,999469541 
-1,0,0,0,0,0,0,0,0,21:53:1@15/4/2015,999469542 
-1,0,0,0,0,0,0,0,0,21:53:1@15/4/2015,999469543 
-1,0,0,0,0,0,0,0,0,21:53:1@15/4/2015,999469544 
-1,0,0,0,0,0,0,0,0,21:53:1@15/4/2015,999469545 
-1,0,0,0,0,0,0,0,0,21:53:1@15/4/2015,999469546 
-1,0,0,0,0,0,0,0,0,21:53:1@15/4/2015,999469547 
-1,0,0,0,0,0,0,0,0,21:53:1@15/4/2015,999469548 
-1,0,0,0,0,0,0,0,0,21:53:1@15/4/2015,999469549 
-1,0,0,0,0,0,0,0,0,21:53:1@15/4/2015,999469550 
-1,0,0,0,0,0,0,0,0,21:53:1@15/4/2015,999469551 
-1,0,0,0,0,0,0,0,0,21:53:1@15/4/2015,999469552 
-1,0,0,0,0,0,0,0,0,21:53:1@15/4/2015,999469553 
-1,0,0,0,0,0,0,0,0,21:53:1@15/4/2015,999469554 
-1,0,0,0,0,0,0,0,0,21:53:1@15/4/2015,999469555 
-1,0,0,0,0,0,0,0,0,21:53:1@15/4/2015,999469556 
-1,0,0,0,0,0,0,0,0,21:53:1@15/4/2015,999469557 
-1,0,0,0,0,0,0,0,0,21:53:1@15/4/2015,999469558 
-1,0,0,0,0,0,0,0,0,21:53:1@15/4/2015,999469559 
-1,0,0,0,0,0,0,0,0,21:53:1@15/4/2015,999469560 
-1,0,0,0,0,0,0,0,0,21:53:1@15/4/2015,999469561 
-1,0,0,0,0,0,0,0,0,21:53:1@15/4/2015,999469562 
-1,0,0,0,0,0,0,0,0,21:53:1@15/4/2015,999469563 
-1,0,0,0,0,0,0,0,0,21:53:1@15/4/2015,999469564 
-1,0,0,0,0,0,0,0,0,21:53:1@15/4/2015,999469565 
-1,0,0,0,0,0,0,0,0,21:53:1@15/4/2015,999469566 
-1,0,0,0,0,0,0,0,0,21:53:1@15/4/2015,999469567 
-1,0,0,0,0,0,0,0,0,21:53:1@15/4/2015,999469568 
-1,0,0,0,0,0,0,0,0,21:53:1@15/4/2015,999469569 
-1,0,0,0,0,0,0,0,0,21:53:1@15/4/2015,999469570 
-1,0,0,0,0,0,0,0,0,21:53:1@15/4/2015,999469571 
-1,0,0,0,0,0,0,0,0,21:53:1@15/4/2015,999469572 
-1,0,0,0,0,0,0,0,0,21:53:1@15/4/2015,999469573 
-1,0,0,0,0,0,0,0,0,21:53:1@15/4/2015,999469574 
-1,0,0,0,0,0,0,0,0,21:53:1@15/4/2015,999469575 
-1,0,0,0,0,0,0,0,0,21:53:1@15/4/2015,999469576 
-1,0,0,0,0,0,0,0,0,21:53:1@15/4/2015,999469577 
-1,0,0,0,0,0,0,0,0,21:53:1@15/4/2015,999469578 
-1,0,0,0,0,0,0,0,0,21:53:1@15/4/2015,999469579 
-1,0,0,0,0,0,0,0,0,21:53:1@15/4/2015,999469580 
-1,0,0,0,0,0,0,0,0,21:53:1@15/4/2015,999469581 
-1,0,0,0,0,0,0,0,0,21:53:1@15/4/2015,999469582 
-1,0,0,0,0,0,0,0,0,21:53:1@15/4/2015,999469583 
-1,0,0,0,0,0,0,0,0,21:53:1@15/4/2015,999469584 
-1,0,0,0,0,0,0,0,0,21:53:1@15/4/2015,999469585 
-1,0,0,0,0,0,0,0,0,21:53:1@15/4/2015,999469586 
-1,0,0,0,0,0,0,0,0,21:53:1@15/4/2015,999469587 
-1,0,0,0,0,0,0,0,0,21:53:1@15/4/2015,999469588 
-1,0,0,0,0,0,0,0,0,21:53:1@15/4/2015,999469589 
-1,0,0,0,0,0,0,0,0,21:53:1@15/4/2015,999469590 
-1,0,0,0,0,0,0,0,0,21:53:1@15/4/2015,999469591 
-1,0,0,0,0,0,0,0,0,21:53:1@15/4/2015,999469592 
-1,0,0,0,0,0,0,0,0,21:53:1@15/4/2015,999469593 
-1,0,0,0,0,0,0,0,0,21:53:1@15/4/2015,999469594 
-1,0,0,0,0,0,0,0,0,21:53:1@15/4/2015,999469595 
-1,0,0,0,0,0,0,0,0,21:53:1@15/4/2015,999469596 
-1,0,0,0,0,0,0,0,0,21:53:1@15/4/2015,999469597 
-1,0,0,0,0,0,0,0,0,21:53:1@15/4/2015,999469598 
-1,0,0,0,0,0,0,0,0,21:53:1@15/4/2015,999469599 
-1,0,0,0,0,0,0,0,0,21:53:1@15/4/2015,999469600 
-1,0,0,0,0,0,0,0,0,21:53:1@15/4/2015,999469601 
-1,0,0,0,0,0,0,0,0,21:53:1@15/4/2015,999469602 
-1,0,0,0,0,0,0,0,0,21:53:1@15/4/2015,999469603 
-1,0,0,0,0,0,0,0,0,21:53:1@15/4/2015,999469604 
-1,0,0,0,0,0,0,0,0,21:53:1@15/4/2015,999469605 
-1,0,0,0,0,0,0,0,0,21:53:1@15/4/2015,999469606 
-1,0,0,0,0,0,0,0,0,21:53:1@15/4/2015,999469607 
-1,0,1,0,-10,-5,-2,-4,-4,21:53:1@15/4/2015,999469608 
-1,0,1,0,-10,-5,-2,-4,-4,21:53:1@15/4/2015,999469609 
-1,0,1,0,-10,-5,-2,-4,-4,21:53:1@15/4/2015,999469610 
-1,0,1,0,-10,-5,-2,-4,-4,21:53:1@15/4/2015,999469611 
-1,0,1,0,-10,-5,-2,-4,-4,21:53:1@15/4/2015,999469612 
-1,0,1,0,-10,-5,-2,-4,-4,21:53:1@15/4/2015,999469613 
-1,0,1,0,-10,-5,-2,-4,-4,21:53:1@15/4/2015,999469614 
-1,0,1,0,-10,-5,-2,-4,-4,21:53:1@15/4/2015,999469615 
-1,0,1,0,-10,-5,-2,-4,-4,21:53:1@15/4/2015,999469616 
-1,0,1,0,-10,-5,-2,-4,-4,21:53:1@15/4/2015,999469617 
-1,0,1,0,-10,-5,-2,-4,-4,21:53:1@15/4/2015,999469618 
-1,0,1,0,-10,-5,-2,-4,-4,21:53:1@15/4/2015,999469619 
-1,0,1,0,-10,-5,-2,-4,-4,21:53:1@15/4/2015,999469620 
-1,0,1,0,-10,-5,-2,-4,-4,21:53:1@15/4/2015,999469621 
-1,-2,0,0,-5,-8,0,0,-6,21:53:1@15/4/2015,999469622 
-1,-2,0,0,-5,-8,0,0,-6,21:53:1@15/4/2015,999469623 
-1,-2,0,0,-5,-8,0,0,-6,21:53:1@15/4/2015,999469624 
-1,-2,0,0,-5,-8,0,0,-6,21:53:1@15/4/2015,999469625 
-1,-2,0,0,-5,-8,0,0,-6,21:53:1@15/4/2015,999469626 
-1,-2,0,0,-5,-8,0,0,-6,21:53:1@15/4/2015,999469627 
-1,-2,0,0,-5,-8,0,0,-6,21:53:1@15/4/2015,999469628 
-1,-2,0,0,-5,-8,0,0,-6,21:53:1@15/4/2015,999469629 
-1,-2,0,0,-5,-8,0,0,-6,21:53:1@15/4/2015,999469630 
-1,-1,-2,-3,-3,-3,-1,-1,-2,21:53:1@15/4/2015,999469631 
-1,-1,-2,-3,-3,-3,-1,-1,-2,21:53:1@15/4/2015,999469632 
-1,-1,-2,-3,-3,-3,-1,-1,-2,21:53:1@15/4/2015,999469633 
-1,-1,-2,-3,-3,-3,-1,-1,-2,21:53:1@15/4/2015,999469634 
-1,-1,-2,-3,-3,-3,-1,-1,-2,21:53:1@15/4/2015,999469635 
-1,-1,-2,-3,-3,-3,-1,-1,-2,21:53:1@15/4/2015,999469636 
-1,-3,-1,0,16,6,0,-1,-1,21:53:1@15/4/2015,999469637 
-1,-3,-1,0,16,6,0,-1,-1,21:53:1@15/4/2015,999469638 
-1,-3,-1,0,16,6,0,-1,-1,21:53:1@15/4/2015,999469639 
-1,-3,-1,0,16,6,0,-1,-1,21:53:1@15/4/2015,999469640 
-1,-3,-1,0,16,6,0,-1,-1,21:53:1@15/4/2015,999469641 
-1,-3,-1,0,16,6,0,-1,-1,21:53:1@15/4/2015,999469642 
-1,-3,-1,0,16,6,0,-1,-1,21:53:1@15/4/2015,999469643 
-1,-3,-1,0,16,6,0,-1,-1,21:53:1@15/4/2015,999469644 
-1,-3,-1,0,16,6,0,-1,-1,21:53:1@15/4/2015,999469645 
-1,-3,-1,0,16,6,0,-1,-1,21:53:1@15/4/2015,999469646 
-1,-3,-1,0,16,6,0,-1,-1,21:53:1@15/4/2015,999469647 
-1,-3,-1,0,16,6,0,-1,-1,21:53:1@15/4/2015,999469648 
-1,-3,-1,0,16,6,0,-1,-1,21:53:1@15/4/2015,999469649 
-1,-3,-1,0,16,6,0,-1,-1,21:53:1@15/4/2015,999469650 
-1,-3,-1,0,16,6,0,-1,-1,21:53:1@15/4/2015,999469651 
-1,4,6,3,4,5,-1,2,1,21:53:1@15/4/2015,999469652 
-1,4,6,3,4,5,-1,2,1,21:53:1@15/4/2015,999469653 
-1,4,6,3,4,5,-1,2,1,21:53:1@15/4/2015,999469654 
-1,4,6,3,4,5,-1,2,1,21:53:1@15/4/2015,999469655 
-1,4,6,3,4,5,-1,2,1,21:53:1@15/4/2015,999469656 
-1,4,6,3,4,5,-1,2,1,21:53:1@15/4/2015,999469657 
-1,4,6,3,4,5,-1,2,1,21:53:1@15/4/2015,999469658 
-1,4,6,3,4,5,-1,2,1,21:53:1@15/4/2015,999469659 
-1,4,6,3,4,5,-1,2,1,21:53:1@15/4/2015,999469660 
-1,-3,-4,-1,-2,-3,-1,-1,-1,21:53:1@15/4/2015,999469661 
-1,-3,-4,-1,-2,-3,-1,-1,-1,21:53:1@15/4/2015,999469662 
-1,-3,-4,-1,-2,-3,-1,-1,-1,21:53:1@15/4/2015,999469663 
-1,-3,-4,-1,-2,-3,-1,-1,-1,21:53:1@15/4/2015,999469664 
-1,-3,-4,-1,-2,-3,-1,-1,-1,21:53:1@15/4/2015,999469665 
-1,-3,-4,-1,-2,-3,-1,-1,-1,21:53:1@15/4/2015,999469666 
-1,-3,-4,-1,-2,-3,-1,-1,-1,21:53:1@15/4/2015,999469667 
-1,-3,-5,-5,-9,-6,-1,0,0,21:53:1@15/4/2015,999469668 
-1,-3,-5,-5,-9,-6,-1,0,0,21:53:1@15/4/2015,999469669 
-1,-3,-5,-5,-9,-6,-1,0,0,21:53:1@15/4/2015,999469670 
-1,-3,-5,-5,-9,-6,-1,0,0,21:53:1@15/4/2015,999469671 
-1,-3,-5,-5,-9,-6,-1,0,0,21:53:1@15/4/2015,999469672 
-1,-3,-5,-5,-9,-6,-1,0,0,21:53:1@15/4/2015,999469673 
-1,-3,-5,-5,-9,-6,-1,0,0,21:53:1@15/4/2015,999469674 
-1,-3,-5,-5,-9,-6,-1,0,0,21:53:1@15/4/2015,999469675 
-1,-3,-5,-5,-9,-6,-1,0,0,21:53:1@15/4/2015,999469676 
-1,-3,-5,-5,-9,-6,-1,0,0,21:53:1@15/4/2015,999469677 
-1,-3,-5,-5,-9,-6,-1,0,0,21:53:1@15/4/2015,999469678 
-1,-3,-5,-5,-9,-6,-1,0,0,21:53:1@15/4/2015,999469679 
-1,-3,-5,-5,-9,-6,-1,0,0,21:53:1@15/4/2015,999469680 
-1,-3,-5,-5,-9,-6,-1,0,0,21:53:1@15/4/2015,999469681 
-1,-3,-5,-5,-9,-6,-1,0,0,21:53:1@15/4/2015,999469682 
-1,-2,-3,-8,-16,-7,-3,-2,-1,21:53:1@15/4/2015,999469683 
-1,-2,-3,-8,-16,-7,-3,-2,-1,21:53:1@15/4/2015,999469684 
-1,-2,-3,-8,-16,-7,-3,-2,-1,21:53:1@15/4/2015,999469685 
-1,-2,-3,-8,-16,-7,-3,-2,-1,21:53:1@15/4/2015,999469686 
-1,-2,-3,-8,-16,-7,-3,-2,-1,21:53:1@15/4/2015,999469687 
-1,-2,-3,-8,-16,-7,-3,-2,-1,21:53:1@15/4/2015,999469688 
-1,-2,-3,-8,-16,-7,-3,-2,-1,21:53:1@15/4/2015,999469689 
-1,-2,-3,-8,-16,-7,-3,-2,-1,21:53:1@15/4/2015,999469690 
-1,-1,1,5,-14,-5,3,-2,-3,21:53:1@15/4/2015,999469691 
-1,-1,1,5,-14,-5,3,-2,-3,21:53:1@15/4/2015,999469692 
-1,-1,1,5,-14,-5,3,-2,-3,21:53:1@15/4/2015,999469693 
-1,-1,1,5,-14,-5,3,-2,-3,21:53:1@15/4/2015,999469694 
-1,-1,1,5,-14,-5,3,-2,-3,21:53:1@15/4/2015,999469695 
-1,-1,1,5,-14,-5,3,-2,-3,21:53:1@15/4/2015,999469696 
-1,0,1,2,23,4,1,-2,-2,21:53:1@15/4/2015,999469697 
-1,0,1,2,23,4,1,-2,-2,21:53:1@15/4/2015,999469698 
-1,0,1,2,23,4,1,-2,-2,21:53:1@15/4/2015,999469699 
-1,0,1,2,23,4,1,-2,-2,21:53:1@15/4/2015,999469700 
-1,0,1,2,23,4,1,-2,-2,21:53:1@15/4/2015,999469701 
-1,0,1,2,23,4,1,-2,-2,21:53:1@15/4/2015,999469702 
-1,0,1,2,23,4,1,-2,-2,21:53:1@15/4/2015,999469703 
-1,0,1,2,23,4,1,-2,-2,21:53:1@15/4/2015,999469704 
-1,0,1,2,23,4,1,-2,-2,21:53:1@15/4/2015,999469705 
-1,0,1,2,23,4,1,-2,-2,21:53:1@15/4/2015,999469706 
-1,0,1,2,23,4,1,-2,-2,21:53:1@15/4/2015,999469707 
-1,0,1,2,23,4,1,-2,-2,21:53:1@15/4/2015,999469708 
-1,0,1,2,23,4,1,-2,-2,21:53:1@15/4/2015,999469709 
-1,0,1,2,23,4,1,-2,-2,21:53:1@15/4/2015,999469710 
-1,0,1,2,23,4,1,-2,-2,21:53:1@15/4/2015,999469711 
-1,-3,-3,-7,-3,-1,-3,-3,-3,21:53:1@15/4/2015,999469712 
-1,-3,-3,-7,-3,-1,-3,-3,-3,21:53:1@15/4/2015,999469713 
-1,-3,-3,-7,-3,-1,-3,-3,-3,21:53:1@15/4/2015,999469714 
-1,-3,-3,-7,-3,-1,-3,-3,-3,21:53:1@15/4/2015,999469715 
-1,-3,-3,-7,-3,-1,-3,-3,-3,21:53:1@15/4/2015,999469716 
-1,-3,-3,-7,-3,-1,-3,-3,-3,21:53:1@15/4/2015,999469717 
-1,-3,-3,-7,-3,-1,-3,-3,-3,21:53:1@15/4/2015,999469718 
-1,-3,-3,-7,-3,-1,-3,-3,-3,21:53:1@15/4/2015,999469719 
-1,0,0,-5,-2,-2,-3,-1,2,21:53:1@15/4/2015,999469720 
-1,0,0,-5,-2,-2,-3,-1,2,21:53:1@15/4/2015,999469721 
-1,0,0,-5,-2,-2,-3,-1,2,21:53:1@15/4/2015,999469722 
-1,0,0,-5,-2,-2,-3,-1,2,21:53:1@15/4/2015,999469723 
-1,0,0,-5,-2,-2,-3,-1,2,21:53:1@15/4/2015,999469724 
-1,0,0,-5,-2,-2,-3,-1,2,21:53:1@15/4/2015,999469725 
-1,0,0,-5,-2,-2,-3,-1,2,21:53:1@15/4/2015,999469726 
-1,-3,-3,-4,-1,-5,-2,-1,-2,21:53:1@15/4/2015,999469727 
-1,-3,-5,2,-21,-10,0,-2,0,21:53:1@15/4/2015,999469728 
-1,-3,-5,2,-21,-10,0,-2,0,21:53:1@15/4/2015,999469729 
-1,-3,-5,2,-21,-10,0,-2,0,21:53:1@15/4/2015,999469730 
-1,-3,-5,2,-21,-10,0,-2,0,21:53:1@15/4/2015,999469731 
-1,-3,-5,2,-21,-10,0,-2,0,21:53:1@15/4/2015,999469732 
-1,-3,-5,2,-21,-10,0,-2,0,21:53:1@15/4/2015,999469733 
-1,-3,-5,2,-21,-10,0,-2,0,21:53:1@15/4/2015,999469734 
-1,-3,-5,2,-21,-10,0,-2,0,21:53:1@15/4/2015,999469735 
-1,-3,-5,2,-21,-10,0,-2,0,21:53:1@15/4/2015,999469736 
-1,-3,-5,2,-21,-10,0,-2,0,21:53:1@15/4/2015,999469737 
-1,-3,-5,2,-21,-10,0,-2,0,21:53:1@15/4/2015,999469738 
-1,-3,-5,2,-21,-10,0,-2,0,21:53:1@15/4/2015,999469739 
-1,-3,-5,2,-21,-10,0,-2,0,21:53:1@15/4/2015,999469740 
-1,-3,-5,2,-21,-10,0,-2,0,21:53:1@15/4/2015,999469741 
-1,-2,-3,-3,3,-5,-2,-2,-2,21:53:1@15/4/2015,999469742 
-1,-2,-3,-3,3,-5,-2,-2,-2,21:53:1@15/4/2015,999469743 
-1,-2,-3,-3,3,-5,-2,-2,-2,21:53:1@15/4/2015,999469744 
-1,-2,-3,-3,3,-5,-2,-2,-2,21:53:1@15/4/2015,999469745 
-1,-2,-3,-3,3,-5,-2,-2,-2,21:53:1@15/4/2015,999469746 
-1,-2,-3,-3,3,-5,-2,-2,-2,21:53:1@15/4/2015,999469747 
-1,-2,-3,-3,3,-5,-2,-2,-2,21:53:1@15/4/2015,999469748 
-1,-1,0,-3,24,4,-2,-1,1,21:53:1@15/4/2015,999469749 
-1,-1,0,-3,24,4,-2,-1,1,21:53:1@15/4/2015,999469750 
-1,-1,0,-3,24,4,-2,-1,1,21:53:1@15/4/2015,999469751 
-1,-1,0,-3,24,4,-2,-1,1,21:53:1@15/4/2015,999469752 
-1,-1,0,-3,24,4,-2,-1,1,21:53:1@15/4/2015,999469753 
-1,-1,0,-3,24,4,-2,-1,1,21:53:1@15/4/2015,999469754 
-1,-1,0,-3,24,4,-2,-1,1,21:53:1@15/4/2015,999469755 
-1,-1,0,-3,24,4,-2,-1,1,21:53:1@15/4/2015,999469756 
-1,0,1,1,-6,0,-2,-2,1,21:53:1@15/4/2015,999469757 
-1,0,1,1,-6,0,-2,-2,1,21:53:1@15/4/2015,999469758 
-1,0,1,1,-6,0,-2,-2,1,21:53:1@15/4/2015,999469759 
-1,0,1,1,-6,0,-2,-2,1,21:53:1@15/4/2015,999469760 
-1,0,1,1,-6,0,-2,-2,1,21:53:1@15/4/2015,999469761 
-1,0,1,1,-6,0,-2,-2,1,21:53:1@15/4/2015,999469762 
-1,0,1,1,-6,0,-2,-2,1,21:53:1@15/4/2015,999469763 
-1,0,1,1,-6,0,-2,-2,1,21:53:1@15/4/2015,999469764 
-1,0,1,1,-6,0,-2,-2,1,21:53:1@15/4/2015,999469765 
-1,0,1,1,-6,0,-2,-2,1,21:53:1@15/4/2015,999469766 
-1,0,1,1,-6,0,-2,-2,1,21:53:1@15/4/2015,999469767 
-1,0,1,1,-6,0,-2,-2,1,21:53:1@15/4/2015,999469768 
-1,0,1,1,-6,0,-2,-2,1,21:53:1@15/4/2015,999469769 
-1,0,1,1,-6,0,-2,-2,1,21:53:1@15/4/2015,999469770 
-1,0,1,1,-6,0,-2,-2,1,21:53:1@15/4/2015,999469771 
-1,-4,-3,0,-3,0,-1,0,-2,21:53:1@15/4/2015,999469772 
-1,-4,-3,0,-3,0,-1,0,-2,21:53:1@15/4/2015,999469773 
-1,-4,-3,0,-3,0,-1,0,-2,21:53:1@15/4/2015,999469774 
-1,-4,-3,0,-3,0,-1,0,-2,21:53:1@15/4/2015,999469775 
-1,-4,-3,0,-3,0,-1,0,-2,21:53:1@15/4/2015,999469776 
-1,-4,-3,0,-3,0,-1,0,-2,21:53:1@15/4/2015,999469777 
-1,-4,-3,0,-3,0,-1,0,-2,21:53:1@15/4/2015,999469778 
-1,1,1,-2,4,-2,-1,-1,0,21:53:1@15/4/2015,999469779 
-1,1,1,-2,4,-2,-1,-1,0,21:53:1@15/4/2015,999469780 
-1,1,1,-2,4,-2,-1,-1,0,21:53:1@15/4/2015,999469781 
-1,1,1,-2,4,-2,-1,-1,0,21:53:1@15/4/2015,999469782 
-1,1,1,-2,4,-2,-1,-1,0,21:53:1@15/4/2015,999469783 
-1,1,1,-2,4,-2,-1,-1,0,21:53:1@15/4/2015,999469784 
-1,1,1,-2,4,-2,-1,-1,0,21:53:1@15/4/2015,999469785 
-1,1,1,-2,4,-2,-1,-1,0,21:53:1@15/4/2015,999469786 
-1,-5,-9,-8,-4,0,-2,-4,-3,21:53:1@15/4/2015,999469787 
-1,1,1,2,-4,0,-1,0,-2,21:53:1@15/4/2015,999469788 
-1,1,1,2,-4,0,-1,0,-2,21:53:1@15/4/2015,999469789 
-1,1,1,2,-4,0,-1,0,-2,21:53:1@15/4/2015,999469790 
-1,1,1,2,-4,0,-1,0,-2,21:53:1@15/4/2015,999469791 
-1,1,1,2,-4,0,-1,0,-2,21:53:1@15/4/2015,999469792 
-1,1,1,2,-4,0,-1,0,-2,21:53:1@15/4/2015,999469793 
-1,1,1,2,-4,0,-1,0,-2,21:53:1@15/4/2015,999469794 
-1,1,1,2,-4,0,-1,0,-2,21:53:1@15/4/2015,999469795 
-1,1,1,2,-4,0,-1,0,-2,21:53:1@15/4/2015,999469796 
-1,1,1,2,-4,0,-1,0,-2,21:53:1@15/4/2015,999469797 
-1,1,1,2,-4,0,-1,0,-2,21:53:1@15/4/2015,999469798 
-1,1,1,2,-4,0,-1,0,-2,21:53:1@15/4/2015,999469799 
-1,1,1,2,-4,0,-1,0,-2,21:53:1@15/4/2015,999469800 
-1,1,1,2,-4,0,-1,0,-2,21:53:1@15/4/2015,999469801 
-1,-6,0,1,0,-2,1,0,-5,21:53:1@15/4/2015,999469802 
-1,-6,0,1,0,-2,1,0,-5,21:53:1@15/4/2015,999469803 
-1,-6,0,1,0,-2,1,0,-5,21:53:1@15/4/2015,999469804 
-1,-6,0,1,0,-2,1,0,-5,21:53:1@15/4/2015,999469805 
-1,-6,0,1,0,-2,1,0,-5,21:53:1@15/4/2015,999469806 
-1,-6,0,1,0,-2,1,0,-5,21:53:1@15/4/2015,999469807 
-1,-6,0,1,0,-2,1,0,-5,21:53:1@15/4/2015,999469808 
-1,-3,-5,-4,-21,-3,-3,-1,-5,21:53:1@15/4/2015,999469809 
-1,-3,-5,-4,-21,-3,-3,-1,-5,21:53:1@15/4/2015,999469810 
-1,-3,-5,-4,-21,-3,-3,-1,-5,21:53:1@15/4/2015,999469811 
-1,-3,-5,-4,-21,-3,-3,-1,-5,21:53:1@15/4/2015,999469812 
-1,-3,-5,-4,-21,-3,-3,-1,-5,21:53:1@15/4/2015,999469813 
-1,-3,-5,-4,-21,-3,-3,-1,-5,21:53:1@15/4/2015,999469814 
-1,-3,-5,-4,-21,-3,-3,-1,-5,21:53:1@15/4/2015,999469815 
-1,-3,-5,-4,-21,-3,-3,-1,-5,21:53:1@15/4/2015,999469816 
-1,5,2,1,-2,-1,-2,-1,0,21:53:1@15/4/2015,999469817 
-1,5,2,1,-2,-1,-2,-1,0,21:53:1@15/4/2015,999469818 
-1,5,2,1,-2,-1,-2,-1,0,21:53:1@15/4/2015,999469819 
-1,5,2,1,-2,-1,-2,-1,0,21:53:1@15/4/2015,999469820 
-1,5,2,1,-2,-1,-2,-1,0,21:53:1@15/4/2015,999469821 
-1,5,2,1,-2,-1,-2,-1,0,21:53:1@15/4/2015,999469822 
-1,5,2,1,-2,-1,-2,-1,0,21:53:1@15/4/2015,999469823 
-1,5,2,1,-2,-1,-2,-1,0,21:53:1@15/4/2015,999469824 
-1,5,2,1,-2,-1,-2,-1,0,21:53:1@15/4/2015,999469825 
-1,5,2,1,-2,-1,-2,-1,0,21:53:1@15/4/2015,999469826 
-1,5,2,1,-2,-1,-2,-1,0,21:53:1@15/4/2015,999469827 
-1,5,2,1,-2,-1,-2,-1,0,21:53:1@15/4/2015,999469828 
-1,5,2,1,-2,-1,-2,-1,0,21:53:1@15/4/2015,999469829 
-1,5,2,1,-2,-1,-2,-1,0,21:53:1@15/4/2015,999469830 
-1,5,2,1,-2,-1,-2,-1,0,21:53:1@15/4/2015,999469831 
-1,5,2,1,-2,-1,-2,-1,0,21:53:1@15/4/2015,999469832 
-1,5,2,1,-2,-1,-2,-1,0,21:53:1@15/4/2015,999469833 
-1,5,2,1,-2,-1,-2,-1,0,21:53:1@15/4/2015,999469834 
-1,5,2,1,-2,-1,-2,-1,0,21:53:1@15/4/2015,999469835 
-1,5,2,1,-2,-1,-2,-1,0,21:53:1@15/4/2015,999469836 
-1,5,2,1,-2,-1,-2,-1,0,21:53:1@15/4/2015,999469837 
-1,5,2,1,-2,-1,-2,-1,0,21:53:1@15/4/2015,999469838 
-1,5,2,1,-2,-1,-2,-1,0,21:53:1@15/4/2015,999469839 
-1,-2,-2,-4,7,-2,-3,-4,-2,21:53:1@15/4/2015,999469840 
-1,-4,-1,-1,-1,-5,-1,-2,-1,21:53:1@15/4/2015,999469841 
-1,-4,-1,-1,-1,-5,-1,-2,-1,21:53:1@15/4/2015,999469842 
-1,-4,-1,-1,-1,-5,-1,-2,-1,21:53:1@15/4/2015,999469843 
-1,-4,-1,-1,-1,-5,-1,-2,-1,21:53:1@15/4/2015,999469844 
-1,-4,-1,-1,-1,-5,-1,-2,-1,21:53:1@15/4/2015,999469845 
-1,-4,-1,-1,-1,-5,-1,-2,-1,21:53:1@15/4/2015,999469846 
-1,-4,-1,-1,-1,-5,-1,-2,-1,21:53:1@15/4/2015,999469847 
-1,0,-2,-2,1,1,-1,0,4,21:53:1@15/4/2015,999469848 
-1,0,-2,-2,1,1,-1,0,4,21:53:1@15/4/2015,999469849 
-1,0,-2,-2,1,1,-1,0,4,21:53:1@15/4/2015,999469850 
-1,0,-2,-2,1,1,-1,0,4,21:53:1@15/4/2015,999469851 
-1,0,-2,-2,1,1,-1,0,4,21:53:1@15/4/2015,999469852 
-1,0,-2,-2,1,1,-1,0,4,21:53:1@15/4/2015,999469853 
-1,0,-2,-2,1,1,-1,0,4,21:53:1@15/4/2015,999469854 
-1,0,-2,-2,1,1,-1,0,4,21:53:1@15/4/2015,999469855 
-1,0,-2,-2,1,1,-1,0,4,21:53:1@15/4/2015,999469856 
-1,0,-2,-2,1,1,-1,0,4,21:53:1@15/4/2015,999469857 
-1,0,-2,-2,1,1,-1,0,4,21:53:1@15/4/2015,999469858 
-1,0,-2,-2,1,1,-1,0,4,21:53:1@15/4/2015,999469859 
-1,0,-2,-2,1,1,-1,0,4,21:53:1@15/4/2015,999469860 
-1,0,-2,-2,1,1,-1,0,4,21:53:1@15/4/2015,999469861 
-1,0,-2,-2,1,1,-1,0,4,21:53:1@15/4/2015,999469862 
0,0,-2,-2,1,1,-1,0,4,21:53:1@15/4/2015,999469863 
0,-5,-2,-2,2,0,1,-1,-2,21:53:1@15/4/2015,999469864 
0,-5,-2,-2,2,0,1,-1,-2,21:53:1@15/4/2015,999469865 
0,-5,-2,-2,2,0,1,-1,-2,21:53:1@15/4/2015,999469866 
0,-5,-2,-2,2,0,1,-1,-2,21:53:1@15/4/2015,999469867 
0,-5,-2,-2,2,0,1,-1,-2,21:53:1@15/4/2015,999469868 
0,-5,-2,-2,2,0,1,-1,-2,21:53:1@15/4/2015,999469869 
0,1,0,-3,-3,1,0,1,5,21:53:1@15/4/2015,999469870 
0,1,0,-3,-3,1,0,1,5,21:53:1@15/4/2015,999469871 
0,1,0,-3,-3,1,0,1,5,21:53:1@15/4/2015,999469872 
0,1,0,-3,-3,1,0,1,5,21:53:1@15/4/2015,999469873 
0,1,0,-3,-3,1,0,1,5,21:53:1@15/4/2015,999469874 
0,1,0,-3,-3,1,0,1,5,21:53:1@15/4/2015,999469875 
0,1,0,-3,-3,1,0,1,5,21:53:1@15/4/2015,999469876 
0,1,0,-3,-3,1,0,1,5,21:53:1@15/4/2015,999469877 
0,0,-3,-2,4,4,1,0,2,21:53:1@15/4/2015,999469878 
0,0,-3,-2,4,4,1,0,2,21:53:1@15/4/2015,999469879 
0,0,-3,-2,4,4,1,0,2,21:53:1@15/4/2015,999469880 
0,0,-3,-2,4,4,1,0,2,21:53:1@15/4/2015,999469881 
0,0,-3,-2,4,4,1,0,2,21:53:1@15/4/2015,999469882 
0,0,-3,-2,4,4,1,0,2,21:53:1@15/4/2015,999469883 
0,0,-3,-2,4,4,1,0,2,21:53:1@15/4/2015,999469884 
0,0,-3,-2,4,4,1,0,2,21:53:1@15/4/2015,999469885 
0,0,-3,-2,4,4,1,0,2,21:53:1@15/4/2015,999469886 
0,0,-3,-2,4,4,1,0,2,21:53:1@15/4/2015,999469887 
0,0,-3,-2,4,4,1,0,2,21:53:1@15/4/2015,999469888 
0,0,-3,-2,4,4,1,0,2,21:53:1@15/4/2015,999469889 
0,0,-3,-2,4,4,1,0,2,21:53:1@15/4/2015,999469890 
0,0,-3,-2,4,4,1,0,2,21:53:1@15/4/2015,999469891 
0,-3,1,0,3,4,1,1,-5,21:53:1@15/4/2015,999469892 
0,-3,1,0,3,4,1,1,-5,21:53:1@15/4/2015,999469893 
0,-3,1,0,3,4,1,1,-5,21:53:1@15/4/2015,999469894 
0,-3,1,0,3,4,1,1,-5,21:53:1@15/4/2015,999469895 
0,-3,1,0,3,4,1,1,-5,21:53:1@15/4/2015,999469896 
0,-3,1,0,3,4,1,1,-5,21:53:1@15/4/2015,999469897 
0,-3,1,0,3,4,1,1,-5,21:53:1@15/4/2015,999469898 
0,-7,-1,-3,-10,-5,-1,-2,-5,21:53:1@15/4/2015,999469899 
0,-7,-1,-3,-10,-5,-1,-2,-5,21:53:1@15/4/2015,999469900 
0,-7,-1,-3,-10,-5,-1,-2,-5,21:53:1@15/4/2015,999469901 
0,-7,-1,-3,-10,-5,-1,-2,-5,21:53:1@15/4/2015,999469902 
0,-7,-1,-3,-10,-5,-1,-2,-5,21:53:1@15/4/2015,999469903 
0,-7,-1,-3,-10,-5,-1,-2,-5,21:53:1@15/4/2015,999469904 
0,-7,-1,-3,-10,-5,-1,-2,-5,21:53:1@15/4/2015,999469905 
0,-7,-1,-3,-10,-5,-1,-2,-5,21:53:1@15/4/2015,999469906 
0,-7,-1,-3,-10,-5,-1,-2,-5,21:53:1@15/4/2015,999469907 
0,3,3,2,2,-1,2,-2,-3,21:53:1@15/4/2015,999469908 
0,3,3,2,2,-1,2,-2,-3,21:53:1@15/4/2015,999469909 
0,3,3,2,2,-1,2,-2,-3,21:53:1@15/4/2015,999469910 
0,3,3,2,2,-1,2,-2,-3,21:53:1@15/4/2015,999469911 
0,3,3,2,2,-1,2,-2,-3,21:53:1@15/4/2015,999469912 
0,3,3,2,2,-1,2,-2,-3,21:53:1@15/4/2015,999469913 
0,3,3,2,2,-1,2,-2,-3,21:53:1@15/4/2015,999469914 
0,3,3,2,2,-1,2,-2,-3,21:53:1@15/4/2015,999469915 
0,3,3,2,2,-1,2,-2,-3,21:53:1@15/4/2015,999469916 
0,3,3,2,2,-1,2,-2,-3,21:53:1@15/4/2015,999469917 
0,3,3,2,2,-1,2,-2,-3,21:53:1@15/4/2015,999469918 
0,3,3,2,2,-1,2,-2,-3,21:53:1@15/4/2015,999469919 
0,3,3,2,2,-1,2,-2,-3,21:53:1@15/4/2015,999469920 
0,3,3,2,2,-1,2,-2,-3,21:53:1@15/4/2015,999469921 
0,-1,-5,-2,0,0,0,0,-4,21:53:1@15/4/2015,999469922 
0,-1,-5,-2,0,0,0,0,-4,21:53:1@15/4/2015,999469923 
0,-1,-5,-2,0,0,0,0,-4,21:53:1@15/4/2015,999469924 
0,-1,-5,-2,0,0,0,0,-4,21:53:1@15/4/2015,999469925 
0,-1,-5,-2,0,0,0,0,-4,21:53:1@15/4/2015,999469926 
0,-1,-5,-2,0,0,0,0,-4,21:53:1@15/4/2015,999469927 
0,-1,-5,-2,0,0,0,0,-4,21:53:1@15/4/2015,999469928 
0,-1,1,1,-6,-3,0,-1,1,21:53:1@15/4/2015,999469929 
0,-1,1,1,-6,-3,0,-1,1,21:53:1@15/4/2015,999469930 
0,-1,1,1,-6,-3,0,-1,1,21:53:1@15/4/2015,999469931 
0,-1,1,1,-6,-3,0,-1,1,21:53:1@15/4/2015,999469932 
0,-1,1,1,-6,-3,0,-1,1,21:53:1@15/4/2015,999469933 
0,-1,1,1,-6,-3,0,-1,1,21:53:1@15/4/2015,999469934 
0,-1,1,1,-6,-3,0,-1,1,21:53:1@15/4/2015,999469935 
0,-1,1,1,-6,-3,0,-1,1,21:53:1@15/4/2015,999469936 
0,-1,-2,-4,-2,-2,-1,-3,-2,21:53:1@15/4/2015,999469937 
0,-1,-2,-4,-2,-2,-1,-3,-2,21:53:1@15/4/2015,999469938 
0,-1,-2,-4,-2,-2,-1,-3,-2,21:53:1@15/4/2015,999469939 
0,-1,-2,-4,-2,-2,-1,-3,-2,21:53:1@15/4/2015,999469940 
0,-1,-2,-4,-2,-2,-1,-3,-2,21:53:1@15/4/2015,999469941 
0,-1,-2,-4,-2,-2,-1,-3,-2,21:53:1@15/4/2015,999469942 
0,-1,-2,-4,-2,-2,-1,-3,-2,21:53:1@15/4/2015,999469943 
0,-1,-2,-4,-2,-2,-1,-3,-2,21:53:1@15/4/2015,999469944 
0,-1,-2,-4,-2,-2,-1,-3,-2,21:53:1@15/4/2015,999469945 
0,-1,-2,-4,-2,-2,-1,-3,-2,21:53:1@15/4/2015,999469946 
0,-1,-2,-4,-2,-2,-1,-3,-2,21:53:1@15/4/2015,999469947 
0,-1,-2,-4,-2,-2,-1,-3,-2,21:53:1@15/4/2015,999469948 
0,-1,-2,-4,-2,-2,-1,-3,-2,21:53:1@15/4/2015,999469949 
0,-1,-2,-4,-2,-2,-1,-3,-2,21:53:1@15/4/2015,999469950 
0,-1,-2,-4,-2,-2,-1,-3,-2,21:53:1@15/4/2015,999469951 
0,6,4,2,9,10,-1,-1,1,21:53:1@15/4/2015,999469952 
0,6,4,2,9,10,-1,-1,1,21:53:1@15/4/2015,999469953 
0,6,4,2,9,10,-1,-1,1,21:53:1@15/4/2015,999469954 
0,6,4,2,9,10,-1,-1,1,21:53:1@15/4/2015,999469955 
0,6,4,2,9,10,-1,-1,1,21:53:1@15/4/2015,999469956 
0,6,4,2,9,10,-1,-1,1,21:53:1@15/4/2015,999469957 
0,6,4,2,9,10,-1,-1,1,21:53:1@15/4/2015,999469958 
0,1,2,-1,8,11,-2,1,-2,21:53:1@15/4/2015,999469959 
0,1,2,-1,8,11,-2,1,-2,21:53:1@15/4/2015,999469960 
0,1,2,-1,8,11,-2,1,-2,21:53:1@15/4/2015,999469961 
0,1,2,-1,8,11,-2,1,-2,21:53:1@15/4/2015,999469962 
0,1,2,-1,8,11,-2,1,-2,21:53:1@15/4/2015,999469963 
0,1,2,-1,8,11,-2,1,-2,21:53:1@15/4/2015,999469964 
0,1,2,-1,8,11,-2,1,-2,21:53:1@15/4/2015,999469965 
0,1,2,-1,8,11,-2,1,-2,21:53:1@15/4/2015,999469966 
0,1,2,-1,8,11,-2,1,-2,21:53:1@15/4/2015,999469967 
0,-3,1,1,-10,2,0,-1,-2,21:53:1@15/4/2015,999469968 
0,-3,1,1,-10,2,0,-1,-2,21:53:1@15/4/2015,999469969 
0,-3,1,1,-10,2,0,-1,-2,21:53:1@15/4/2015,999469970 
0,-3,1,1,-10,2,0,-1,-2,21:53:1@15/4/2015,999469971 
0,-3,1,1,-10,2,0,-1,-2,21:53:1@15/4/2015,999469972 
0,-3,1,1,-10,2,0,-1,-2,21:53:1@15/4/2015,999469973 
0,-3,1,1,-10,2,0,-1,-2,21:53:1@15/4/2015,999469974 
0,-3,1,1,-10,2,0,-1,-2,21:53:1@15/4/2015,999469975 
0,-3,1,1,-10,2,0,-1,-2,21:53:1@15/4/2015,999469976 
0,-3,1,1,-10,2,0,-1,-2,21:53:1@15/4/2015,999469977 
0,-3,1,1,-10,2,0,-1,-2,21:53:1@15/4/2015,999469978 
0,-3,1,1,-10,2,0,-1,-2,21:53:1@15/4/2015,999469979 
0,-3,1,1,-10,2,0,-1,-2,21:53:1@15/4/2015,999469980 
0,-3,1,1,-10,2,0,-1,-2,21:53:1@15/4/2015,999469981 
0,13,1,-1,-9,-4,-1,-3,8,21:53:1@15/4/2015,999469982 
0,13,1,-1,-9,-4,-1,-3,8,21:53:1@15/4/2015,999469983 
0,13,1,-1,-9,-4,-1,-3,8,21:53:1@15/4/2015,999469984 
0,13,1,-1,-9,-4,-1,-3,8,21:53:1@15/4/2015,999469985 
0,13,1,-1,-9,-4,-1,-3,8,21:53:1@15/4/2015,999469986 
0,13,1,-1,-9,-4,-1,-3,8,21:53:1@15/4/2015,999469987 
0,13,1,-1,-9,-4,-1,-3,8,21:53:1@15/4/2015,999469988 
0,-3,-4,0,2,-10,0,0,1,21:53:1@15/4/2015,999469989 
0,-3,-4,0,2,-10,0,0,1,21:53:1@15/4/2015,999469990 
0,-3,-4,0,2,-10,0,0,1,21:53:1@15/4/2015,999469991 
0,-3,-4,0,2,-10,0,0,1,21:53:1@15/4/2015,999469992 
0,-3,-4,0,2,-10,0,0,1,21:53:1@15/4/2015,999469993 
0,-3,-4,0,2,-10,0,0,1,21:53:1@15/4/2015,999469994 
0,-3,-4,0,2,-10,0,0,1,21:53:1@15/4/2015,999469995 
0,-3,-4,0,2,-10,0,0,1,21:53:1@15/4/2015,999469996 
0,-8,-4,-4,-11,-10,-2,-2,-13,21:53:1@15/4/2015,999469997 
0,-8,-4,-4,-11,-10,-2,-2,-13,21:53:1@15/4/2015,999469998 
0,-8,-4,-4,-11,-10,-2,-2,-13,21:53:1@15/4/2015,999469999 
0,-8,-4,-4,-11,-10,-2,-2,-13,21:53:2@15/4/2015,999470000 
0,-8,-4,-4,-11,-10,-2,-2,-13,21:53:2@15/4/2015,999470001 
0,-8,-4,-4,-11,-10,-2,-2,-13,21:53:2@15/4/2015,999470002 
0,-8,-4,-4,-11,-10,-2,-2,-13,21:53:2@15/4/2015,999470003 
0,-8,-4,-4,-11,-10,-2,-2,-13,21:53:2@15/4/2015,999470004 
0,-8,-4,-4,-11,-10,-2,-2,-13,21:53:2@15/4/2015,999470005 
0,-8,-4,-4,-11,-10,-2,-2,-13,21:53:2@15/4/2015,999470006 
0,-8,-4,-4,-11,-10,-2,-2,-13,21:53:2@15/4/2015,999470007 
0,-8,-4,-4,-11,-10,-2,-2,-13,21:53:2@15/4/2015,999470008 
0,-8,-4,-4,-11,-10,-2,-2,-13,21:53:2@15/4/2015,999470009 
0,-8,-4,-4,-11,-10,-2,-2,-13,21:53:2@15/4/2015,999470010 
0,-8,-4,-4,-11,-10,-2,-2,-13,21:53:2@15/4/2015,999470011 
0,0,-2,1,-7,2,-2,0,2,21:53:2@15/4/2015,999470012 
0,0,-2,1,-7,2,-2,0,2,21:53:2@15/4/2015,999470013 
0,0,-2,1,-7,2,-2,0,2,21:53:2@15/4/2015,999470014 
0,0,-2,1,-7,2,-2,0,2,21:53:2@15/4/2015,999470015 
0,0,-2,1,-7,2,-2,0,2,21:53:2@15/4/2015,999470016 
0,0,-2,1,-7,2,-2,0,2,21:53:2@15/4/2015,999470017 
0,0,-2,1,-7,2,-2,0,2,21:53:2@15/4/2015,999470018 
0,11,4,1,13,-4,-1,-2,6,21:53:2@15/4/2015,999470019 
0,11,4,1,13,-4,-1,-2,6,21:53:2@15/4/2015,999470020 
0,11,4,1,13,-4,-1,-2,6,21:53:2@15/4/2015,999470021 
0,11,4,1,13,-4,-1,-2,6,21:53:2@15/4/2015,999470022 
0,11,4,1,13,-4,-1,-2,6,21:53:2@15/4/2015,999470023 
0,11,4,1,13,-4,-1,-2,6,21:53:2@15/4/2015,999470024 
0,11,4,1,13,-4,-1,-2,6,21:53:2@15/4/2015,999470025 
0,11,4,1,13,-4,-1,-2,6,21:53:2@15/4/2015,999470026 
0,11,4,1,13,-4,-1,-2,6,21:53:2@15/4/2015,999470027 
0,-19,-1,-4,-4,-4,-4,-6,-18,21:53:2@15/4/2015,999470028 
0,-19,-1,-4,-4,-4,-4,-6,-18,21:53:2@15/4/2015,999470029 
0,-19,-1,-4,-4,-4,-4,-6,-18,21:53:2@15/4/2015,999470030 
0,-19,-1,-4,-4,-4,-4,-6,-18,21:53:2@15/4/2015,999470031 
0,-19,-1,-4,-4,-4,-4,-6,-18,21:53:2@15/4/2015,999470032 
0,-19,-1,-4,-4,-4,-4,-6,-18,21:53:2@15/4/2015,999470033 
0,-19,-1,-4,-4,-4,-4,-6,-18,21:53:2@15/4/2015,999470034 
0,-19,-1,-4,-4,-4,-4,-6,-18,21:53:2@15/4/2015,999470035 
0,-19,-1,-4,-4,-4,-4,-6,-18,21:53:2@15/4/2015,999470036 
0,-19,-1,-4,-4,-4,-4,-6,-18,21:53:2@15/4/2015,999470037 
0,-19,-1,-4,-4,-4,-4,-6,-18,21:53:2@15/4/2015,999470038 
0,-19,-1,-4,-4,-4,-4,-6,-18,21:53:2@15/4/2015,999470039 
0,-19,-1,-4,-4,-4,-4,-6,-18,21:53:2@15/4/2015,999470040 
0,-19,-1,-4,-4,-4,-4,-6,-18,21:53:2@15/4/2015,999470041 
0,10,-2,1,2,6,-2,1,5,21:53:2@15/4/2015,999470042 
0,10,-2,1,2,6,-2,1,5,21:53:2@15/4/2015,999470043 
0,10,-2,1,2,6,-2,1,5,21:53:2@15/4/2015,999470044 
0,10,-2,1,2,6,-2,1,5,21:53:2@15/4/2015,999470045 
0,10,-2,1,2,6,-2,1,5,21:53:2@15/4/2015,999470046 
0,10,-2,1,2,6,-2,1,5,21:53:2@15/4/2015,999470047 
0,10,-2,1,2,6,-2,1,5,21:53:2@15/4/2015,999470048 
0,-9,-4,-6,0,-7,-1,-3,-48,21:53:2@15/4/2015,999470049 
0,-9,-4,-6,0,-7,-1,-3,-48,21:53:2@15/4/2015,999470050 
0,-9,-4,-6,0,-7,-1,-3,-48,21:53:2@15/4/2015,999470051 
0,-9,-4,-6,0,-7,-1,-3,-48,21:53:2@15/4/2015,999470052 
0,-9,-4,-6,0,-7,-1,-3,-48,21:53:2@15/4/2015,999470053 
0,-9,-4,-6,0,-7,-1,-3,-48,21:53:2@15/4/2015,999470054 
0,-9,-4,-6,0,-7,-1,-3,-48,21:53:2@15/4/2015,999470055 
0,-9,-4,-6,0,-7,-1,-3,-48,21:53:2@15/4/2015,999470056 
0,12,0,1,0,-1,0,-1,43,21:53:2@15/4/2015,999470057 
0,12,0,1,0,-1,0,-1,43,21:53:2@15/4/2015,999470058 
0,12,0,1,0,-1,0,-1,43,21:53:2@15/4/2015,999470059 
0,12,0,1,0,-1,0,-1,43,21:53:2@15/4/2015,999470060 
0,12,0,1,0,-1,0,-1,43,21:53:2@15/4/2015,999470061 
0,12,0,1,0,-1,0,-1,43,21:53:2@15/4/2015,999470062 
0,12,0,1,0,-1,0,-1,43,21:53:2@15/4/2015,999470063 
0,12,0,1,0,-1,0,-1,43,21:53:2@15/4/2015,999470064 
0,12,0,1,0,-1,0,-1,43,21:53:2@15/4/2015,999470065 
0,12,0,1,0,-1,0,-1,43,21:53:2@15/4/2015,999470066 
0,12,0,1,0,-1,0,-1,43,21:53:2@15/4/2015,999470067 
0,12,0,1,0,-1,0,-1,43,21:53:2@15/4/2015,999470068 
0,12,0,1,0,-1,0,-1,43,21:53:2@15/4/2015,999470069 
0,12,0,1,0,-1,0,-1,43,21:53:2@15/4/2015,999470070 
0,12,0,1,0,-1,0,-1,43,21:53:2@15/4/2015,999470071 
0,25,-4,-4,-5,-7,-8,2,40,21:53:2@15/4/2015,999470072 
0,25,-4,-4,-5,-7,-8,2,40,21:53:2@15/4/2015,999470073 
0,25,-4,-4,-5,-7,-8,2,40,21:53:2@15/4/2015,999470074 
0,25,-4,-4,-5,-7,-8,2,40,21:53:2@15/4/2015,999470075 
0,25,-4,-4,-5,-7,-8,2,40,21:53:2@15/4/2015,999470076 
0,25,-4,-4,-5,-7,-8,2,40,21:53:2@15/4/2015,999470077 
0,25,-4,-4,-5,-7,-8,2,40,21:53:2@15/4/2015,999470078 
0,-10,-6,-3,-5,3,-1,0,39,21:53:2@15/4/2015,999470079 
0,-10,-6,-3,-5,3,-1,0,39,21:53:2@15/4/2015,999470080 
0,-10,-6,-3,-5,3,-1,0,39,21:53:2@15/4/2015,999470081 
0,-10,-6,-3,-5,3,-1,0,39,21:53:2@15/4/2015,999470082 
0,-10,-6,-3,-5,3,-1,0,39,21:53:2@15/4/2015,999470083 
0,-10,-6,-3,-5,3,-1,0,39,21:53:2@15/4/2015,999470084 
0,-10,-6,-3,-5,3,-1,0,39,21:53:2@15/4/2015,999470085 
0,-10,-6,-3,-5,3,-1,0,39,21:53:2@15/4/2015,999470086 
0,-10,-6,-3,-5,3,-1,0,39,21:53:2@15/4/2015,999470087 
0,-22,-4,-1,2,1,7,-15,-81,21:53:2@15/4/2015,999470088 
0,-22,-4,-1,2,1,7,-15,-81,21:53:2@15/4/2015,999470089 
0,-22,-4,-1,2,1,7,-15,-81,21:53:2@15/4/2015,999470090 
0,-22,-4,-1,2,1,7,-15,-81,21:53:2@15/4/2015,999470091 
0,-22,-4,-1,2,1,7,-15,-81,21:53:2@15/4/2015,999470092 
0,-22,-4,-1,2,1,7,-15,-81,21:53:2@15/4/2015,999470093 
0,-22,-4,-1,2,1,7,-15,-81,21:53:2@15/4/2015,999470094 
0,-22,-4,-1,2,1,7,-15,-81,21:53:2@15/4/2015,999470095 
0,-22,-4,-1,2,1,7,-15,-81,21:53:2@15/4/2015,999470096 
0,-22,-4,-1,2,1,7,-15,-81,21:53:2@15/4/2015,999470097 
0,-22,-4,-1,2,1,7,-15,-81,21:53:2@15/4/2015,999470098 
0,-22,-4,-1,2,1,7,-15,-81,21:53:2@15/4/2015,999470099 
0,-22,-4,-1,2,1,7,-15,-81,21:53:2@15/4/2015,999470100 
0,-22,-4,-1,2,1,7,-15,-81,21:53:2@15/4/2015,999470101 
0,-6,-2,-1,-6,1,-4,-2,29,21:53:2@15/4/2015,999470102 
0,-6,-2,-1,-6,1,-4,-2,29,21:53:2@15/4/2015,999470103 
0,-6,-2,-1,-6,1,-4,-2,29,21:53:2@15/4/2015,999470104 
0,-6,-2,-1,-6,1,-4,-2,29,21:53:2@15/4/2015,999470105 
0,-6,-2,-1,-6,1,-4,-2,29,21:53:2@15/4/2015,999470106 
0,-6,-2,-1,-6,1,-4,-2,29,21:53:2@15/4/2015,999470107 
0,-6,-2,-1,-6,1,-4,-2,29,21:53:2@15/4/2015,999470108 
0,12,0,-1,4,3,1,19,127,21:53:2@15/4/2015,999470109 
0,12,0,-1,4,3,1,19,127,21:53:2@15/4/2015,999470110 
0,12,0,-1,4,3,1,19,127,21:53:2@15/4/2015,999470111 
0,12,0,-1,4,3,1,19,127,21:53:2@15/4/2015,999470112 
0,12,0,-1,4,3,1,19,127,21:53:2@15/4/2015,999470113 
0,12,0,-1,4,3,1,19,127,21:53:2@15/4/2015,999470114 
0,12,0,-1,4,3,1,19,127,21:53:2@15/4/2015,999470115 
0,12,0,-1,4,3,1,19,127,21:53:2@15/4/2015,999470116 
0,-20,-2,-3,-6,-8,-8,-6,-43,21:53:2@15/4/2015,999470117 
0,-20,-2,-3,-6,-8,-8,-6,-43,21:53:2@15/4/2015,999470118 
0,-20,-2,-3,-6,-8,-8,-6,-43,21:53:2@15/4/2015,999470119 
0,-20,-2,-3,-6,-8,-8,-6,-43,21:53:2@15/4/2015,999470120 
0,-20,-2,-3,-6,-8,-8,-6,-43,21:53:2@15/4/2015,999470121 
0,-20,-2,-3,-6,-8,-8,-6,-43,21:53:2@15/4/2015,999470122 
0,-20,-2,-3,-6,-8,-8,-6,-43,21:53:2@15/4/2015,999470123 
0,-20,-2,-3,-6,-8,-8,-6,-43,21:53:2@15/4/2015,999470124 
0,-20,-2,-3,-6,-8,-8,-6,-43,21:53:2@15/4/2015,999470125 
0,-20,-2,-3,-6,-8,-8,-6,-43,21:53:2@15/4/2015,999470126 
0,-20,-2,-3,-6,-8,-8,-6,-43,21:53:2@15/4/2015,999470127 
0,-20,-2,-3,-6,-8,-8,-6,-43,21:53:2@15/4/2015,999470128 
0,-20,-2,-3,-6,-8,-8,-6,-43,21:53:2@15/4/2015,999470129 
0,-20,-2,-3,-6,-8,-8,-6,-43,21:53:2@15/4/2015,999470130 
0,-20,-2,-3,-6,-8,-8,-6,-43,21:53:2@15/4/2015,999470131 
0,1,-1,-2,1,-5,0,0,-41,21:53:2@15/4/2015,999470132 
0,1,-1,-2,1,-5,0,0,-41,21:53:2@15/4/2015,999470133 
0,1,-1,-2,1,-5,0,0,-41,21:53:2@15/4/2015,999470134 
0,1,-1,-2,1,-5,0,0,-41,21:53:2@15/4/2015,999470135 
0,1,-1,-2,1,-5,0,0,-41,21:53:2@15/4/2015,999470136 
0,1,-1,-2,1,-5,0,0,-41,21:53:2@15/4/2015,999470137 
0,1,-1,-2,1,-5,0,0,-41,21:53:2@15/4/2015,999470138 
0,-9,-1,2,-3,0,-4,-1,-21,21:53:2@15/4/2015,999470139 
0,-9,-1,2,-3,0,-4,-1,-21,21:53:2@15/4/2015,999470140 
0,-9,-1,2,-3,0,-4,-1,-21,21:53:2@15/4/2015,999470141 
0,-9,-1,2,-3,0,-4,-1,-21,21:53:2@15/4/2015,999470142 
0,-9,-1,2,-3,0,-4,-1,-21,21:53:2@15/4/2015,999470143 
0,-9,-1,2,-3,0,-4,-1,-21,21:53:2@15/4/2015,999470144 
0,-9,-1,2,-3,0,-4,-1,-21,21:53:2@15/4/2015,999470145 
0,-9,-1,2,-3,0,-4,-1,-21,21:53:2@15/4/2015,999470146 
0,-9,-1,2,-3,0,-4,-1,-21,21:53:2@15/4/2015,999470147 
0,-3,-3,-3,-3,-4,-1,-3,-7,21:53:2@15/4/2015,999470148 
0,-3,-3,-3,-3,-4,-1,-3,-7,21:53:2@15/4/2015,999470149 
0,-3,-3,-3,-3,-4,-1,-3,-7,21:53:2@15/4/2015,999470150 
0,-3,-3,-3,-3,-4,-1,-3,-7,21:53:2@15/4/2015,999470151 
0,-3,-3,-3,-3,-4,-1,-3,-7,21:53:2@15/4/2015,999470152 
0,-3,-3,-3,-3,-4,-1,-3,-7,21:53:2@15/4/2015,999470153 
0,-3,-3,-3,-3,-4,-1,-3,-7,21:53:2@15/4/2015,999470154 
0,-3,-3,-3,-3,-4,-1,-3,-7,21:53:2@15/4/2015,999470155 
0,-3,-3,-3,-3,-4,-1,-3,-7,21:53:2@15/4/2015,999470156 
0,-3,-3,-3,-3,-4,-1,-3,-7,21:53:2@15/4/2015,999470157 
0,-3,-3,-3,-3,-4,-1,-3,-7,21:53:2@15/4/2015,999470158 
0,-3,-3,-3,-3,-4,-1,-3,-7,21:53:2@15/4/2015,999470159 
0,-3,-3,-3,-3,-4,-1,-3,-7,21:53:2@15/4/2015,999470160 
0,-3,-3,-3,-3,-4,-1,-3,-7,21:53:2@15/4/2015,999470161 
0,-21,-5,-3,-2,-3,3,-4,-57,21:53:2@15/4/2015,999470162 
0,-21,-5,-3,-2,-3,3,-4,-57,21:53:2@15/4/2015,999470163 
0,-21,-5,-3,-2,-3,3,-4,-57,21:53:2@15/4/2015,999470164 
0,-21,-5,-3,-2,-3,3,-4,-57,21:53:2@15/4/2015,999470165 
0,-21,-5,-3,-2,-3,3,-4,-57,21:53:2@15/4/2015,999470166 
0,-21,-5,-3,-2,-3,3,-4,-57,21:53:2@15/4/2015,999470167 
0,-21,-5,-3,-2,-3,3,-4,-57,21:53:2@15/4/2015,999470168 
0,-7,-2,2,4,4,0,-23,-13,21:53:2@15/4/2015,999470169 
0,-7,-2,2,4,4,0,-23,-13,21:53:2@15/4/2015,999470170 
0,-7,-2,2,4,4,0,-23,-13,21:53:2@15/4/2015,999470171 
0,-7,-2,2,4,4,0,-23,-13,21:53:2@15/4/2015,999470172 
0,-7,-2,2,4,4,0,-23,-13,21:53:2@15/4/2015,999470173 
0,-7,-2,2,4,4,0,-23,-13,21:53:2@15/4/2015,999470174 
0,-7,-2,2,4,4,0,-23,-13,21:53:2@15/4/2015,999470175 
0,-7,-2,2,4,4,0,-23,-13,21:53:2@15/4/2015,999470176 
0,18,4,2,-2,-6,-5,5,-28,21:53:2@15/4/2015,999470177 
0,18,4,2,-2,-6,-5,5,-28,21:53:2@15/4/2015,999470178 
0,18,4,2,-2,-6,-5,5,-28,21:53:2@15/4/2015,999470179 
0,18,4,2,-2,-6,-5,5,-28,21:53:2@15/4/2015,999470180 
0,18,4,2,-2,-6,-5,5,-28,21:53:2@15/4/2015,999470181 
0,18,4,2,-2,-6,-5,5,-28,21:53:2@15/4/2015,999470182 
0,18,4,2,-2,-6,-5,5,-28,21:53:2@15/4/2015,999470183 
0,18,4,2,-2,-6,-5,5,-28,21:53:2@15/4/2015,999470184 
0,18,4,2,-2,-6,-5,5,-28,21:53:2@15/4/2015,999470185 
0,18,4,2,-2,-6,-5,5,-28,21:53:2@15/4/2015,999470186 
0,18,4,2,-2,-6,-5,5,-28,21:53:2@15/4/2015,999470187 
0,18,4,2,-2,-6,-5,5,-28,21:53:2@15/4/2015,999470188 
0,18,4,2,-2,-6,-5,5,-28,21:53:2@15/4/2015,999470189 
0,18,4,2,-2,-6,-5,5,-28,21:53:2@15/4/2015,999470190 
0,18,4,2,-2,-6,-5,5,-28,21:53:2@15/4/2015,999470191 
0,-12,1,1,2,4,-8,-11,-44,21:53:2@15/4/2015,999470192 
0,-12,1,1,2,4,-8,-11,-44,21:53:2@15/4/2015,999470193 
0,-12,1,1,2,4,-8,-11,-44,21:53:2@15/4/2015,999470194 
0,-12,1,1,2,4,-8,-11,-44,21:53:2@15/4/2015,999470195 
0,-12,1,1,2,4,-8,-11,-44,21:53:2@15/4/2015,999470196 
0,-12,1,1,2,4,-8,-11,-44,21:53:2@15/4/2015,999470197 
0,-12,1,1,2,4,-8,-11,-44,21:53:2@15/4/2015,999470198 
0,-6,-2,-2,-2,6,0,3,-5,21:53:2@15/4/2015,999470199 
0,-6,-2,-2,-2,6,0,3,-5,21:53:2@15/4/2015,999470200 
0,-6,-2,-2,-2,6,0,3,-5,21:53:2@15/4/2015,999470201 
0,-6,-2,-2,-2,6,0,3,-5,21:53:2@15/4/2015,999470202 
0,-6,-2,-2,-2,6,0,3,-5,21:53:2@15/4/2015,999470203 
0,-6,-2,-2,-2,6,0,3,-5,21:53:2@15/4/2015,999470204 
0,-6,-2,-2,-2,6,0,3,-5,21:53:2@15/4/2015,999470205 
0,-6,-2,-2,-2,6,0,3,-5,21:53:2@15/4/2015,999470206 
0,-6,-2,-2,-2,6,0,3,-5,21:53:2@15/4/2015,999470207 
0,0,-4,-4,1,-4,-8,2,-5,21:53:2@15/4/2015,999470208 
0,0,-4,-4,1,-4,-8,2,-5,21:53:2@15/4/2015,999470209 
0,0,-4,-4,1,-4,-8,2,-5,21:53:2@15/4/2015,999470210 
0,0,-4,-4,1,-4,-8,2,-5,21:53:2@15/4/2015,999470211 
0,0,-4,-4,1,-4,-8,2,-5,21:53:2@15/4/2015,999470212 
0,0,-4,-4,1,-4,-8,2,-5,21:53:2@15/4/2015,999470213 
0,0,-4,-4,1,-4,-8,2,-5,21:53:2@15/4/2015,999470214 
0,0,-4,-4,1,-4,-8,2,-5,21:53:2@15/4/2015,999470215 
0,0,-4,-4,1,-4,-8,2,-5,21:53:2@15/4/2015,999470216 
0,0,-4,-4,1,-4,-8,2,-5,21:53:2@15/4/2015,999470217 
0,0,-4,-4,1,-4,-8,2,-5,21:53:2@15/4/2015,999470218 
0,0,-4,-4,1,-4,-8,2,-5,21:53:2@15/4/2015,999470219 
0,0,-4,-4,1,-4,-8,2,-5,21:53:2@15/4/2015,999470220 
0,0,-4,-4,1,-4,-8,2,-5,21:53:2@15/4/2015,999470221 
0,5,1,0,-2,-5,0,2,-1,21:53:2@15/4/2015,999470222 
0,5,1,0,-2,-5,0,2,-1,21:53:2@15/4/2015,999470223 
0,5,1,0,-2,-5,0,2,-1,21:53:2@15/4/2015,999470224 
0,5,1,0,-2,-5,0,2,-1,21:53:2@15/4/2015,999470225 
0,5,1,0,-2,-5,0,2,-1,21:53:2@15/4/2015,999470226 
0,5,1,0,-2,-5,0,2,-1,21:53:2@15/4/2015,999470227 
0,5,1,0,-2,-5,0,2,-1,21:53:2@15/4/2015,999470228 
0,3,2,-1,-1,1,0,8,35,21:53:2@15/4/2015,999470229 
0,3,2,-1,-1,1,0,8,35,21:53:2@15/4/2015,999470230 
0,3,2,-1,-1,1,0,8,35,21:53:2@15/4/2015,999470231 
0,3,2,-1,-1,1,0,8,35,21:53:2@15/4/2015,999470232 
0,3,2,-1,-1,1,0,8,35,21:53:2@15/4/2015,999470233 
0,3,2,-1,-1,1,0,8,35,21:53:2@15/4/2015,999470234 
0,3,2,-1,-1,1,0,8,35,21:53:2@15/4/2015,999470235 
0,3,2,-1,-1,1,0,8,35,21:53:2@15/4/2015,999470236 
0,-8,-1,0,-1,2,2,-5,-24,21:53:2@15/4/2015,999470237 
0,-8,-1,0,-1,2,2,-5,-24,21:53:2@15/4/2015,999470238 
0,-8,-1,0,-1,2,2,-5,-24,21:53:2@15/4/2015,999470239 
0,-8,-1,0,-1,2,2,-5,-24,21:53:2@15/4/2015,999470240 
0,-8,-1,0,-1,2,2,-5,-24,21:53:2@15/4/2015,999470241 
0,-8,-1,0,-1,2,2,-5,-24,21:53:2@15/4/2015,999470242 
0,-8,-1,0,-1,2,2,-5,-24,21:53:2@15/4/2015,999470243 
0,-8,-1,0,-1,2,2,-5,-24,21:53:2@15/4/2015,999470244 
0,-8,-1,0,-1,2,2,-5,-24,21:53:2@15/4/2015,999470245 
0,-8,-1,0,-1,2,2,-5,-24,21:53:2@15/4/2015,999470246 
0,-8,-1,0,-1,2,2,-5,-24,21:53:2@15/4/2015,999470247 
0,-8,-1,0,-1,2,2,-5,-24,21:53:2@15/4/2015,999470248 
0,-8,-1,0,-1,2,2,-5,-24,21:53:2@15/4/2015,999470249 
0,-8,-1,0,-1,2,2,-5,-24,21:53:2@15/4/2015,999470250 
0,-8,-1,0,-1,2,2,-5,-24,21:53:2@15/4/2015,999470251 
0,2,1,1,2,-1,1,2,2,21:53:2@15/4/2015,999470252 
0,2,1,1,2,-1,1,2,2,21:53:2@15/4/2015,999470253 
0,2,1,1,2,-1,1,2,2,21:53:2@15/4/2015,999470254 
0,2,1,1,2,-1,1,2,2,21:53:2@15/4/2015,999470255 
0,2,1,1,2,-1,1,2,2,21:53:2@15/4/2015,999470256 
0,2,1,1,2,-1,1,2,2,21:53:2@15/4/2015,999470257 
0,2,1,1,2,-1,1,2,2,21:53:2@15/4/2015,999470258 
0,-4,-3,0,-2,3,2,-3,-2,21:53:2@15/4/2015,999470259 
0,-4,-3,0,-2,3,2,-3,-2,21:53:2@15/4/2015,999470260 
0,-4,-3,0,-2,3,2,-3,-2,21:53:2@15/4/2015,999470261 
0,-4,-3,0,-2,3,2,-3,-2,21:53:2@15/4/2015,999470262 
0,-4,-3,0,-2,3,2,-3,-2,21:53:2@15/4/2015,999470263 
0,-4,-3,0,-2,3,2,-3,-2,21:53:2@15/4/2015,999470264 
0,-4,-3,0,-2,3,2,-3,-2,21:53:2@15/4/2015,999470265 
0,-4,-3,0,-2,3,2,-3,-2,21:53:2@15/4/2015,999470266 
0,-4,-3,0,-2,3,2,-3,-2,21:53:2@15/4/2015,999470267 
0,2,2,0,2,-2,1,5,10,21:53:2@15/4/2015,999470268 
0,2,2,0,2,-2,1,5,10,21:53:2@15/4/2015,999470269 
0,2,2,0,2,-2,1,5,10,21:53:2@15/4/2015,999470270 
0,2,2,0,2,-2,1,5,10,21:53:2@15/4/2015,999470271 
0,2,2,0,2,-2,1,5,10,21:53:2@15/4/2015,999470272 
0,2,2,0,2,-2,1,5,10,21:53:2@15/4/2015,999470273 
0,2,2,0,2,-2,1,5,10,21:53:2@15/4/2015,999470274 
0,2,2,0,2,-2,1,5,10,21:53:2@15/4/2015,999470275 
0,2,2,0,2,-2,1,5,10,21:53:2@15/4/2015,999470276 
0,2,2,0,2,-2,1,5,10,21:53:2@15/4/2015,999470277 
0,2,2,0,2,-2,1,5,10,21:53:2@15/4/2015,999470278 
0,2,2,0,2,-2,1,5,10,21:53:2@15/4/2015,999470279 
0,2,2,0,2,-2,1,5,10,21:53:2@15/4/2015,999470280 
0,2,2,0,2,-2,1,5,10,21:53:2@15/4/2015,999470281 
0,-6,-3,-4,-4,-3,0,-3,5,21:53:2@15/4/2015,999470282 
0,-6,-3,-4,-4,-3,0,-3,5,21:53:2@15/4/2015,999470283 
0,-6,-3,-4,-4,-3,0,-3,5,21:53:2@15/4/2015,999470284 
0,-6,-3,-4,-4,-3,0,-3,5,21:53:2@15/4/2015,999470285 
0,-6,-3,-4,-4,-3,0,-3,5,21:53:2@15/4/2015,999470286 
0,-6,-3,-4,-4,-3,0,-3,5,21:53:2@15/4/2015,999470287 
0,-6,-3,-4,-4,-3,0,-3,5,21:53:2@15/4/2015,999470288 
0,7,0,-5,-7,-1,1,2,28,21:53:2@15/4/2015,999470289 
0,7,0,-5,-7,-1,1,2,28,21:53:2@15/4/2015,999470290 
0,7,0,-5,-7,-1,1,2,28,21:53:2@15/4/2015,999470291 
0,7,0,-5,-7,-1,1,2,28,21:53:2@15/4/2015,999470292 
0,7,0,-5,-7,-1,1,2,28,21:53:2@15/4/2015,999470293 
0,7,0,-5,-7,-1,1,2,28,21:53:2@15/4/2015,999470294 
0,7,0,-5,-7,-1,1,2,28,21:53:2@15/4/2015,999470295 
0,7,0,-5,-7,-1,1,2,28,21:53:2@15/4/2015,999470296 
0,3,3,10,10,3,-4,-2,-21,21:53:2@15/4/2015,999470297 
0,3,3,10,10,3,-4,-2,-21,21:53:2@15/4/2015,999470298 
0,3,3,10,10,3,-4,-2,-21,21:53:2@15/4/2015,999470299 
0,3,3,10,10,3,-4,-2,-21,21:53:2@15/4/2015,999470300 
0,3,3,10,10,3,-4,-2,-21,21:53:2@15/4/2015,999470301 
0,3,3,10,10,3,-4,-2,-21,21:53:2@15/4/2015,999470302 
0,3,3,10,10,3,-4,-2,-21,21:53:2@15/4/2015,999470303 
0,3,3,10,10,3,-4,-2,-21,21:53:2@15/4/2015,999470304 
0,3,3,10,10,3,-4,-2,-21,21:53:2@15/4/2015,999470305 
0,3,3,10,10,3,-4,-2,-21,21:53:2@15/4/2015,999470306 
0,3,3,10,10,3,-4,-2,-21,21:53:2@15/4/2015,999470307 
0,3,3,10,10,3,-4,-2,-21,21:53:2@15/4/2015,999470308 
0,3,3,10,10,3,-4,-2,-21,21:53:2@15/4/2015,999470309 
0,3,3,10,10,3,-4,-2,-21,21:53:2@15/4/2015,999470310 
0,3,3,10,10,3,-4,-2,-21,21:53:2@15/4/2015,999470311 
0,-4,-8,-3,-3,-3,2,-2,-30,21:53:2@15/4/2015,999470312 
0,-4,-8,-3,-3,-3,2,-2,-30,21:53:2@15/4/2015,999470313 
0,-4,-8,-3,-3,-3,2,-2,-30,21:53:2@15/4/2015,999470314 
0,-4,-8,-3,-3,-3,2,-2,-30,21:53:2@15/4/2015,999470315 
0,-4,-8,-3,-3,-3,2,-2,-30,21:53:2@15/4/2015,999470316 
0,-4,-8,-3,-3,-3,2,-2,-30,21:53:2@15/4/2015,999470317 
0,-4,-8,-3,-3,-3,2,-2,-30,21:53:2@15/4/2015,999470318 
0,0,-2,-4,-3,-5,-6,2,32,21:53:2@15/4/2015,999470319 
0,0,-2,-4,-3,-5,-6,2,32,21:53:2@15/4/2015,999470320 
0,0,-2,-4,-3,-5,-6,2,32,21:53:2@15/4/2015,999470321 
0,0,-2,-4,-3,-5,-6,2,32,21:53:2@15/4/2015,999470322 
0,0,-2,-4,-3,-5,-6,2,32,21:53:2@15/4/2015,999470323 
0,0,-2,-4,-3,-5,-6,2,32,21:53:2@15/4/2015,999470324 
0,0,-2,-4,-3,-5,-6,2,32,21:53:2@15/4/2015,999470325 
0,0,-2,-4,-3,-5,-6,2,32,21:53:2@15/4/2015,999470326 
0,0,-2,-4,-3,-5,-6,2,32,21:53:2@15/4/2015,999470327 
0,6,0,-1,-1,0,3,2,11,21:53:2@15/4/2015,999470328 
0,6,0,-1,-1,0,3,2,11,21:53:2@15/4/2015,999470329 
0,6,0,-1,-1,0,3,2,11,21:53:2@15/4/2015,999470330 
0,6,0,-1,-1,0,3,2,11,21:53:2@15/4/2015,999470331 
0,6,0,-1,-1,0,3,2,11,21:53:2@15/4/2015,999470332 
0,6,0,-1,-1,0,3,2,11,21:53:2@15/4/2015,999470333 
0,6,0,-1,-1,0,3,2,11,21:53:2@15/4/2015,999470334 
0,6,0,-1,-1,0,3,2,11,21:53:2@15/4/2015,999470335 
0,6,0,-1,-1,0,3,2,11,21:53:2@15/4/2015,999470336 
0,6,0,-1,-1,0,3,2,11,21:53:2@15/4/2015,999470337 
0,6,0,-1,-1,0,3,2,11,21:53:2@15/4/2015,999470338 
0,6,0,-1,-1,0,3,2,11,21:53:2@15/4/2015,999470339 
0,6,0,-1,-1,0,3,2,11,21:53:2@15/4/2015,999470340 
0,6,0,-1,-1,0,3,2,11,21:53:2@15/4/2015,999470341 
0,5,0,1,1,-4,-2,-5,16,21:53:2@15/4/2015,999470342 
0,5,0,1,1,-4,-2,-5,16,21:53:2@15/4/2015,999470343 
0,5,0,1,1,-4,-2,-5,16,21:53:2@15/4/2015,999470344 
0,5,0,1,1,-4,-2,-5,16,21:53:2@15/4/2015,999470345 
0,5,0,1,1,-4,-2,-5,16,21:53:2@15/4/2015,999470346 
0,5,0,1,1,-4,-2,-5,16,21:53:2@15/4/2015,999470347 
0,5,0,1,1,-4,-2,-5,16,21:53:2@15/4/2015,999470348 
0,1,-2,-2,-6,-4,-2,-2,-8,21:53:2@15/4/2015,999470349 
0,1,-2,-2,-6,-4,-2,-2,-8,21:53:2@15/4/2015,999470350 
0,1,-2,-2,-6,-4,-2,-2,-8,21:53:2@15/4/2015,999470351 
0,1,-2,-2,-6,-4,-2,-2,-8,21:53:2@15/4/2015,999470352 
0,1,-2,-2,-6,-4,-2,-2,-8,21:53:2@15/4/2015,999470353 
0,1,-2,-2,-6,-4,-2,-2,-8,21:53:2@15/4/2015,999470354 
0,1,-2,-2,-6,-4,-2,-2,-8,21:53:2@15/4/2015,999470355 
0,1,-2,-2,-6,-4,-2,-2,-8,21:53:2@15/4/2015,999470356 
0,2,-3,-4,-5,-1,-6,-9,-56,21:53:2@15/4/2015,999470357 
0,2,-3,-4,-5,-1,-6,-9,-56,21:53:2@15/4/2015,999470358 
0,2,-3,-4,-5,-1,-6,-9,-56,21:53:2@15/4/2015,999470359 
0,2,-3,-4,-5,-1,-6,-9,-56,21:53:2@15/4/2015,999470360 
0,2,-3,-4,-5,-1,-6,-9,-56,21:53:2@15/4/2015,999470361 
0,2,-3,-4,-5,-1,-6,-9,-56,21:53:2@15/4/2015,999470362 
0,2,-3,-4,-5,-1,-6,-9,-56,21:53:2@15/4/2015,999470363 
0,2,-3,-4,-5,-1,-6,-9,-56,21:53:2@15/4/2015,999470364 
0,2,-3,-4,-5,-1,-6,-9,-56,21:53:2@15/4/2015,999470365 
0,2,-3,-4,-5,-1,-6,-9,-56,21:53:2@15/4/2015,999470366 
0,2,-3,-4,-5,-1,-6,-9,-56,21:53:2@15/4/2015,999470367 
0,2,-3,-4,-5,-1,-6,-9,-56,21:53:2@15/4/2015,999470368 
0,2,-3,-4,-5,-1,-6,-9,-56,21:53:2@15/4/2015,999470369 
0,2,-3,-4,-5,-1,-6,-9,-56,21:53:2@15/4/2015,999470370 
0,2,-3,-4,-5,-1,-6,-9,-56,21:53:2@15/4/2015,999470371 
0,-6,-1,1,0,-2,-2,-1,-4,21:53:2@15/4/2015,999470372 
0,-6,-1,1,0,-2,-2,-1,-4,21:53:2@15/4/2015,999470373 
0,-6,-1,1,0,-2,-2,-1,-4,21:53:2@15/4/2015,999470374 
0,-6,-1,1,0,-2,-2,-1,-4,21:53:2@15/4/2015,999470375 
0,-6,-1,1,0,-2,-2,-1,-4,21:53:2@15/4/2015,999470376 
0,-6,-1,1,0,-2,-2,-1,-4,21:53:2@15/4/2015,999470377 
0,-6,-1,1,0,-2,-2,-1,-4,21:53:2@15/4/2015,999470378 
0,5,3,0,2,-7,-2,0,-33,21:53:2@15/4/2015,999470379 
0,5,3,0,2,-7,-2,0,-33,21:53:2@15/4/2015,999470380 
0,5,3,0,2,-7,-2,0,-33,21:53:2@15/4/2015,999470381 
0,5,3,0,2,-7,-2,0,-33,21:53:2@15/4/2015,999470382 
0,5,3,0,2,-7,-2,0,-33,21:53:2@15/4/2015,999470383 
0,5,3,0,2,-7,-2,0,-33,21:53:2@15/4/2015,999470384 
0,5,3,0,2,-7,-2,0,-33,21:53:2@15/4/2015,999470385 
0,5,3,0,2,-7,-2,0,-33,21:53:2@15/4/2015,999470386 
0,5,3,0,2,-7,-2,0,-33,21:53:2@15/4/2015,999470387 
0,-2,0,1,-2,-3,-7,-1,-13,21:53:2@15/4/2015,999470388 
0,-2,0,1,-2,-3,-7,-1,-13,21:53:2@15/4/2015,999470389 
0,-2,0,1,-2,-3,-7,-1,-13,21:53:2@15/4/2015,999470390 
0,-2,0,1,-2,-3,-7,-1,-13,21:53:2@15/4/2015,999470391 
0,-2,0,1,-2,-3,-7,-1,-13,21:53:2@15/4/2015,999470392 
0,-2,0,1,-2,-3,-7,-1,-13,21:53:2@15/4/2015,999470393 
0,-2,0,1,-2,-3,-7,-1,-13,21:53:2@15/4/2015,999470394 
0,-2,0,1,-2,-3,-7,-1,-13,21:53:2@15/4/2015,999470395 
0,-2,0,1,-2,-3,-7,-1,-13,21:53:2@15/4/2015,999470396 
0,-2,0,1,-2,-3,-7,-1,-13,21:53:2@15/4/2015,999470397 
0,-2,0,1,-2,-3,-7,-1,-13,21:53:2@15/4/2015,999470398 
0,-2,0,1,-2,-3,-7,-1,-13,21:53:2@15/4/2015,999470399 
0,-2,0,1,-2,-3,-7,-1,-13,21:53:2@15/4/2015,999470400 
0,-2,0,1,-2,-3,-7,-1,-13,21:53:2@15/4/2015,999470401 
0,-16,0,-4,-2,20,7,-8,-63,21:53:2@15/4/2015,999470402 
0,-16,0,-4,-2,20,7,-8,-63,21:53:2@15/4/2015,999470403 
0,-16,0,-4,-2,20,7,-8,-63,21:53:2@15/4/2015,999470404 
0,-16,0,-4,-2,20,7,-8,-63,21:53:2@15/4/2015,999470405 
0,-16,0,-4,-2,20,7,-8,-63,21:53:2@15/4/2015,999470406 
0,-16,0,-4,-2,20,7,-8,-63,21:53:2@15/4/2015,999470407 
0,-16,0,-4,-2,20,7,-8,-63,21:53:2@15/4/2015,999470408 
0,27,1,-3,0,5,0,9,36,21:53:2@15/4/2015,999470409 
0,27,1,-3,0,5,0,9,36,21:53:2@15/4/2015,999470410 
0,27,1,-3,0,5,0,9,36,21:53:2@15/4/2015,999470411 
0,27,1,-3,0,5,0,9,36,21:53:2@15/4/2015,999470412 
0,27,1,-3,0,5,0,9,36,21:53:2@15/4/2015,999470413 
0,27,1,-3,0,5,0,9,36,21:53:2@15/4/2015,999470414 
0,27,1,-3,0,5,0,9,36,21:53:2@15/4/2015,999470415 
0,25,-6,-5,-4,-12,6,35,125,21:53:2@15/4/2015,999470416 
0,25,-6,-5,-4,-12,6,35,125,21:53:2@15/4/2015,999470417 
0,25,-6,-5,-4,-12,6,35,125,21:53:2@15/4/2015,999470418 
0,25,-6,-5,-4,-12,6,35,125,21:53:2@15/4/2015,999470419 
0,25,-6,-5,-4,-12,6,35,125,21:53:2@15/4/2015,999470420 
0,25,-6,-5,-4,-12,6,35,125,21:53:2@15/4/2015,999470421 
0,25,-6,-5,-4,-12,6,35,125,21:53:2@15/4/2015,999470422 
0,25,-6,-5,-4,-12,6,35,125,21:53:2@15/4/2015,999470423 
0,25,-6,-5,-4,-12,6,35,125,21:53:2@15/4/2015,999470424 
0,25,-6,-5,-4,-12,6,35,125,21:53:2@15/4/2015,999470425 
0,25,-6,-5,-4,-12,6,35,125,21:53:2@15/4/2015,999470426 
0,25,-6,-5,-4,-12,6,35,125,21:53:2@15/4/2015,999470427 
0,25,-6,-5,-4,-12,6,35,125,21:53:2@15/4/2015,999470428 
0,25,-6,-5,-4,-12,6,35,125,21:53:2@15/4/2015,999470429 
0,25,-6,-5,-4,-12,6,35,125,21:53:2@15/4/2015,999470430 
0,25,-6,-5,-4,-12,6,35,125,21:53:2@15/4/2015,999470431 
0,-24,-5,-9,-12,-12,-12,0,85,21:53:2@15/4/2015,999470432 
0,-24,-5,-9,-12,-12,-12,0,85,21:53:2@15/4/2015,999470433 
0,-24,-5,-9,-12,-12,-12,0,85,21:53:2@15/4/2015,999470434 
0,-24,-5,-9,-12,-12,-12,0,85,21:53:2@15/4/2015,999470435 
0,-24,-5,-9,-12,-12,-12,0,85,21:53:2@15/4/2015,999470436 
0,-24,-5,-9,-12,-12,-12,0,85,21:53:2@15/4/2015,999470437 
0,-24,-5,-9,-12,-12,-12,0,85,21:53:2@15/4/2015,999470438 
0,-9,-1,0,1,46,-6,3,7,21:53:2@15/4/2015,999470439 
0,-9,-1,0,1,46,-6,3,7,21:53:2@15/4/2015,999470440 
0,-9,-1,0,1,46,-6,3,7,21:53:2@15/4/2015,999470441 
0,-9,-1,0,1,46,-6,3,7,21:53:2@15/4/2015,999470442 
0,-9,-1,0,1,46,-6,3,7,21:53:2@15/4/2015,999470443 
0,-9,-1,0,1,46,-6,3,7,21:53:2@15/4/2015,999470444 
0,-9,-1,0,1,46,-6,3,7,21:53:2@15/4/2015,999470445 
0,-9,-1,0,1,46,-6,3,7,21:53:2@15/4/2015,999470446 
0,-9,-1,0,1,46,-6,3,7,21:53:2@15/4/2015,999470447 
0,32,0,1,-2,40,0,-22,-10,21:53:2@15/4/2015,999470448 
0,32,0,1,-2,40,0,-22,-10,21:53:2@15/4/2015,999470449 
0,32,0,1,-2,40,0,-22,-10,21:53:2@15/4/2015,999470450 
0,32,0,1,-2,40,0,-22,-10,21:53:2@15/4/2015,999470451 
0,32,0,1,-2,40,0,-22,-10,21:53:2@15/4/2015,999470452 
0,32,0,1,-2,40,0,-22,-10,21:53:2@15/4/2015,999470453 
0,32,0,1,-2,40,0,-22,-10,21:53:2@15/4/2015,999470454 
0,32,0,1,-2,40,0,-22,-10,21:53:2@15/4/2015,999470455 
0,32,0,1,-2,40,0,-22,-10,21:53:2@15/4/2015,999470456 
0,32,0,1,-2,40,0,-22,-10,21:53:2@15/4/2015,999470457 
0,32,0,1,-2,40,0,-22,-10,21:53:2@15/4/2015,999470458 
0,32,0,1,-2,40,0,-22,-10,21:53:2@15/4/2015,999470459 
0,32,0,1,-2,40,0,-22,-10,21:53:2@15/4/2015,999470460 
0,32,0,1,-2,40,0,-22,-10,21:53:2@15/4/2015,999470461 
0,2,2,4,4,-60,20,-21,60,21:53:2@15/4/2015,999470462 
0,2,2,4,4,-60,20,-21,60,21:53:2@15/4/2015,999470463 
0,2,2,4,4,-60,20,-21,60,21:53:2@15/4/2015,999470464 
0,2,2,4,4,-60,20,-21,60,21:53:2@15/4/2015,999470465 
0,2,2,4,4,-60,20,-21,60,21:53:2@15/4/2015,999470466 
0,2,2,4,4,-60,20,-21,60,21:53:2@15/4/2015,999470467 
0,2,2,4,4,-60,20,-21,60,21:53:2@15/4/2015,999470468 
0,-27,-5,3,-1,3,-1,-11,-121,21:53:2@15/4/2015,999470469 
0,-27,-5,3,-1,3,-1,-11,-121,21:53:2@15/4/2015,999470470 
0,-27,-5,3,-1,3,-1,-11,-121,21:53:2@15/4/2015,999470471 
0,-27,-5,3,-1,3,-1,-11,-121,21:53:2@15/4/2015,999470472 
0,-27,-5,3,-1,3,-1,-11,-121,21:53:2@15/4/2015,999470473 
0,-27,-5,3,-1,3,-1,-11,-121,21:53:2@15/4/2015,999470474 
0,-27,-5,3,-1,3,-1,-11,-121,21:53:2@15/4/2015,999470475 
0,-27,-5,3,-1,3,-1,-11,-121,21:53:2@15/4/2015,999470476 
0,-27,-5,3,-1,3,-1,-11,-121,21:53:2@15/4/2015,999470477 
0,-27,-5,3,-1,3,-1,-11,-121,21:53:2@15/4/2015,999470478 
0,-27,-5,3,-1,3,-1,-11,-121,21:53:2@15/4/2015,999470479 
0,-27,-5,3,-1,3,-1,-11,-121,21:53:2@15/4/2015,999470480 
0,-27,-5,3,-1,3,-1,-11,-121,21:53:2@15/4/2015,999470481 
0,-27,-5,3,-1,3,-1,-11,-121,21:53:2@15/4/2015,999470482 
0,-27,-5,3,-1,3,-1,-11,-121,21:53:2@15/4/2015,999470483 
0,-27,-5,3,-1,3,-1,-11,-121,21:53:2@15/4/2015,999470484 
0,7,-7,-8,-14,-18,-14,32,-70,21:53:2@15/4/2015,999470485 
0,7,-7,-8,-14,-18,-14,32,-70,21:53:2@15/4/2015,999470486 
0,7,-7,-8,-14,-18,-14,32,-70,21:53:2@15/4/2015,999470487 
0,7,-7,-8,-14,-18,-14,32,-70,21:53:2@15/4/2015,999470488 
0,7,-7,-8,-14,-18,-14,32,-70,21:53:2@15/4/2015,999470489 
0,7,-7,-8,-14,-18,-14,32,-70,21:53:2@15/4/2015,999470490 
0,-35,3,9,19,22,17,18,6,21:53:2@15/4/2015,999470491 
0,54,5,-1,2,17,0,8,22,21:53:2@15/4/2015,999470492 
0,54,5,-1,2,17,0,8,22,21:53:2@15/4/2015,999470493 
0,54,5,-1,2,17,0,8,22,21:53:2@15/4/2015,999470494 
0,54,5,-1,2,17,0,8,22,21:53:2@15/4/2015,999470495 
0,54,5,-1,2,17,0,8,22,21:53:2@15/4/2015,999470496 
0,54,5,-1,2,17,0,8,22,21:53:2@15/4/2015,999470497 
0,54,5,-1,2,17,0,8,22,21:53:2@15/4/2015,999470498 
0,46,5,-3,-4,-5,-16,-10,-11,21:53:2@15/4/2015,999470499 
0,46,5,-3,-4,-5,-16,-10,-11,21:53:2@15/4/2015,999470500 
0,46,5,-3,-4,-5,-16,-10,-11,21:53:2@15/4/2015,999470501 
0,46,5,-3,-4,-5,-16,-10,-11,21:53:2@15/4/2015,999470502 
0,46,5,-3,-4,-5,-16,-10,-11,21:53:2@15/4/2015,999470503 
0,46,5,-3,-4,-5,-16,-10,-11,21:53:2@15/4/2015,999470504 
0,46,5,-3,-4,-5,-16,-10,-11,21:53:2@15/4/2015,999470505 
0,46,5,-3,-4,-5,-16,-10,-11,21:53:2@15/4/2015,999470506 
0,46,5,-3,-4,-5,-16,-10,-11,21:53:2@15/4/2015,999470507 
0,-12,-2,-1,-4,-20,-3,7,-39,21:53:2@15/4/2015,999470508 
0,-12,-2,-1,-4,-20,-3,7,-39,21:53:2@15/4/2015,999470509 
0,-12,-2,-1,-4,-20,-3,7,-39,21:53:2@15/4/2015,999470510 
0,-12,-2,-1,-4,-20,-3,7,-39,21:53:2@15/4/2015,999470511 
0,-12,-2,-1,-4,-20,-3,7,-39,21:53:2@15/4/2015,999470512 
0,-12,-2,-1,-4,-20,-3,7,-39,21:53:2@15/4/2015,999470513 
0,-12,-2,-1,-4,-20,-3,7,-39,21:53:2@15/4/2015,999470514 
0,-12,-2,-1,-4,-20,-3,7,-39,21:53:2@15/4/2015,999470515 
0,-12,-2,-1,-4,-20,-3,7,-39,21:53:2@15/4/2015,999470516 
0,-12,-2,-1,-4,-20,-3,7,-39,21:53:2@15/4/2015,999470517 
0,-12,-2,-1,-4,-20,-3,7,-39,21:53:2@15/4/2015,999470518 
0,-12,-2,-1,-4,-20,-3,7,-39,21:53:2@15/4/2015,999470519 
0,-12,-2,-1,-4,-20,-3,7,-39,21:53:2@15/4/2015,999470520 
0,-12,-2,-1,-4,-20,-3,7,-39,21:53:2@15/4/2015,999470521 
0,-28,-3,2,2,-71,3,-1,84,21:53:2@15/4/2015,999470522 
0,-28,-3,2,2,-71,3,-1,84,21:53:2@15/4/2015,999470523 
0,-28,-3,2,2,-71,3,-1,84,21:53:2@15/4/2015,999470524 
0,-28,-3,2,2,-71,3,-1,84,21:53:2@15/4/2015,999470525 
0,-28,-3,2,2,-71,3,-1,84,21:53:2@15/4/2015,999470526 
0,-28,-3,2,2,-71,3,-1,84,21:53:2@15/4/2015,999470527 
0,-28,-3,2,2,-71,3,-1,84,21:53:2@15/4/2015,999470528 
0,0,6,4,10,40,6,-2,26,21:53:2@15/4/2015,999470529 
0,0,6,4,10,40,6,-2,26,21:53:2@15/4/2015,999470530 
0,0,6,4,10,40,6,-2,26,21:53:2@15/4/2015,999470531 
0,0,6,4,10,40,6,-2,26,21:53:2@15/4/2015,999470532 
0,0,6,4,10,40,6,-2,26,21:53:2@15/4/2015,999470533 
0,0,6,4,10,40,6,-2,26,21:53:2@15/4/2015,999470534 
0,0,6,4,10,40,6,-2,26,21:53:2@15/4/2015,999470535 
0,0,6,4,10,40,6,-2,26,21:53:2@15/4/2015,999470536 
0,0,6,4,10,40,6,-2,26,21:53:2@15/4/2015,999470537 
0,0,6,4,10,40,6,-2,26,21:53:2@15/4/2015,999470538 
0,0,6,4,10,40,6,-2,26,21:53:2@15/4/2015,999470539 
0,0,6,4,10,40,6,-2,26,21:53:2@15/4/2015,999470540 
0,0,6,4,10,40,6,-2,26,21:53:2@15/4/2015,999470541 
0,0,6,4,10,40,6,-2,26,21:53:2@15/4/2015,999470542 
0,0,6,4,10,40,6,-2,26,21:53:2@15/4/2015,999470543 
0,0,6,4,10,40,6,-2,26,21:53:2@15/4/2015,999470544 
0,7,-7,-4,-5,21,11,-6,45,21:53:2@15/4/2015,999470545 
0,7,-7,-4,-5,21,11,-6,45,21:53:2@15/4/2015,999470546 
0,7,-7,-4,-5,21,11,-6,45,21:53:2@15/4/2015,999470547 
0,7,-7,-4,-5,21,11,-6,45,21:53:2@15/4/2015,999470548 
0,7,-7,-4,-5,21,11,-6,45,21:53:2@15/4/2015,999470549 
0,7,-7,-4,-5,21,11,-6,45,21:53:2@15/4/2015,999470550 
0,7,2,1,-3,-23,2,6,77,21:53:2@15/4/2015,999470551 
0,-16,-9,1,4,-1,5,-7,-23,21:53:2@15/4/2015,999470552 
0,-16,-9,1,4,-1,5,-7,-23,21:53:2@15/4/2015,999470553 
0,-16,-9,1,4,-1,5,-7,-23,21:53:2@15/4/2015,999470554 
0,-16,-9,1,4,-1,5,-7,-23,21:53:2@15/4/2015,999470555 
0,-16,-9,1,4,-1,5,-7,-23,21:53:2@15/4/2015,999470556 
0,-16,-9,1,4,-1,5,-7,-23,21:53:2@15/4/2015,999470557 
0,-16,-9,1,4,-1,5,-7,-23,21:53:2@15/4/2015,999470558 
0,-3,-15,-5,2,34,-11,-14,-22,21:53:2@15/4/2015,999470559 
0,-3,-15,-5,2,34,-11,-14,-22,21:53:2@15/4/2015,999470560 
0,-3,-15,-5,2,34,-11,-14,-22,21:53:2@15/4/2015,999470561 
0,-3,-15,-5,2,34,-11,-14,-22,21:53:2@15/4/2015,999470562 
0,-3,-15,-5,2,34,-11,-14,-22,21:53:2@15/4/2015,999470563 
0,-3,-15,-5,2,34,-11,-14,-22,21:53:2@15/4/2015,999470564 
0,-3,-15,-5,2,34,-11,-14,-22,21:53:2@15/4/2015,999470565 
0,-3,-15,-5,2,34,-11,-14,-22,21:53:2@15/4/2015,999470566 
0,-3,-15,-5,2,34,-11,-14,-22,21:53:2@15/4/2015,999470567 
0,-3,-15,-5,2,34,-11,-14,-22,21:53:2@15/4/2015,999470568 
0,-3,-15,-5,2,34,-11,-14,-22,21:53:2@15/4/2015,999470569 
0,-3,-15,-5,2,34,-11,-14,-22,21:53:2@15/4/2015,999470570 
0,-3,-15,-5,2,34,-11,-14,-22,21:53:2@15/4/2015,999470571 
0,-3,-15,-5,2,34,-11,-14,-22,21:53:2@15/4/2015,999470572 
0,-3,-15,-5,2,34,-11,-14,-22,21:53:2@15/4/2015,999470573 
0,-7,1,-5,-5,26,4,0,-13,21:53:2@15/4/2015,999470574 
0,-7,1,-5,-5,26,4,0,-13,21:53:2@15/4/2015,999470575 
0,-7,1,-5,-5,26,4,0,-13,21:53:2@15/4/2015,999470576 
0,-7,1,-5,-5,26,4,0,-13,21:53:2@15/4/2015,999470577 
0,-7,1,-5,-5,26,4,0,-13,21:53:2@15/4/2015,999470578 
0,-7,1,-5,-5,26,4,0,-13,21:53:2@15/4/2015,999470579 
0,-7,1,-5,-5,26,4,0,-13,21:53:2@15/4/2015,999470580 
0,-7,1,-5,-5,26,4,0,-13,21:53:2@15/4/2015,999470581 
0,-11,0,1,3,-14,-3,8,-87,21:53:2@15/4/2015,999470582 
0,-11,0,1,3,-14,-3,8,-87,21:53:2@15/4/2015,999470583 
0,-11,0,1,3,-14,-3,8,-87,21:53:2@15/4/2015,999470584 
0,-11,0,1,3,-14,-3,8,-87,21:53:2@15/4/2015,999470585 
0,-11,0,1,3,-14,-3,8,-87,21:53:2@15/4/2015,999470586 
0,-11,0,1,3,-14,-3,8,-87,21:53:2@15/4/2015,999470587 
0,-11,0,1,3,-14,-3,8,-87,21:53:2@15/4/2015,999470588 
0,-17,-2,3,1,-4,2,-3,-33,21:53:2@15/4/2015,999470589 
0,-17,-2,3,1,-4,2,-3,-33,21:53:2@15/4/2015,999470590 
0,-17,-2,3,1,-4,2,-3,-33,21:53:2@15/4/2015,999470591 
0,-17,-2,3,1,-4,2,-3,-33,21:53:2@15/4/2015,999470592 
0,-17,-2,3,1,-4,2,-3,-33,21:53:2@15/4/2015,999470593 
0,-17,-2,3,1,-4,2,-3,-33,21:53:2@15/4/2015,999470594 
0,-17,-2,3,1,-4,2,-3,-33,21:53:2@15/4/2015,999470595 
0,-17,-2,3,1,-4,2,-3,-33,21:53:2@15/4/2015,999470596 
0,-17,-2,3,1,-4,2,-3,-33,21:53:2@15/4/2015,999470597 
0,-17,-2,3,1,-4,2,-3,-33,21:53:2@15/4/2015,999470598 
0,-17,-2,3,1,-4,2,-3,-33,21:53:2@15/4/2015,999470599 
0,-17,-2,3,1,-4,2,-3,-33,21:53:2@15/4/2015,999470600 
0,-17,-2,3,1,-4,2,-3,-33,21:53:2@15/4/2015,999470601 
0,-17,-2,3,1,-4,2,-3,-33,21:53:2@15/4/2015,999470602 
0,-17,-2,3,1,-4,2,-3,-33,21:53:2@15/4/2015,999470603 
0,-17,-2,3,1,-4,2,-3,-33,21:53:2@15/4/2015,999470604 
0,-18,3,1,0,34,-1,4,-2,21:53:2@15/4/2015,999470605 
0,-18,3,1,0,34,-1,4,-2,21:53:2@15/4/2015,999470606 
0,-18,3,1,0,34,-1,4,-2,21:53:2@15/4/2015,999470607 
0,-18,3,1,0,34,-1,4,-2,21:53:2@15/4/2015,999470608 
0,-18,3,1,0,34,-1,4,-2,21:53:2@15/4/2015,999470609 
0,-18,3,1,0,34,-1,4,-2,21:53:2@15/4/2015,999470610 
0,9,3,-2,-4,-47,-4,4,-26,21:53:2@15/4/2015,999470611 
0,9,3,-2,-4,-47,-4,4,-26,21:53:2@15/4/2015,999470612 
0,9,3,-2,-4,-47,-4,4,-26,21:53:2@15/4/2015,999470613 
0,9,3,-2,-4,-47,-4,4,-26,21:53:2@15/4/2015,999470614 
0,9,3,-2,-4,-47,-4,4,-26,21:53:2@15/4/2015,999470615 
0,9,3,-2,-4,-47,-4,4,-26,21:53:2@15/4/2015,999470616 
0,9,3,-2,-4,-47,-4,4,-26,21:53:2@15/4/2015,999470617 
0,9,3,-2,-4,-47,-4,4,-26,21:53:2@15/4/2015,999470618 
0,10,1,-1,-1,-1,11,-6,41,21:53:2@15/4/2015,999470619 
0,10,1,-1,-1,-1,11,-6,41,21:53:2@15/4/2015,999470620 
0,10,1,-1,-1,-1,11,-6,41,21:53:2@15/4/2015,999470621 
0,10,1,-1,-1,-1,11,-6,41,21:53:2@15/4/2015,999470622 
0,10,1,-1,-1,-1,11,-6,41,21:53:2@15/4/2015,999470623 
0,10,1,-1,-1,-1,11,-6,41,21:53:2@15/4/2015,999470624 
0,10,1,-1,-1,-1,11,-6,41,21:53:2@15/4/2015,999470625 
0,10,1,-1,-1,-1,11,-6,41,21:53:2@15/4/2015,999470626 
0,10,1,-1,-1,-1,11,-6,41,21:53:2@15/4/2015,999470627 
0,10,1,-1,-1,-1,11,-6,41,21:53:2@15/4/2015,999470628 
0,10,1,-1,-1,-1,11,-6,41,21:53:2@15/4/2015,999470629 
0,10,1,-1,-1,-1,11,-6,41,21:53:2@15/4/2015,999470630 
0,10,1,-1,-1,-1,11,-6,41,21:53:2@15/4/2015,999470631 
0,10,1,-1,-1,-1,11,-6,41,21:53:2@15/4/2015,999470632 
0,10,1,-1,-1,-1,11,-6,41,21:53:2@15/4/2015,999470633 
0,0,-1,2,1,-20,-4,-2,-6,21:53:2@15/4/2015,999470634 
0,0,-1,2,1,-20,-4,-2,-6,21:53:2@15/4/2015,999470635 
0,0,-1,2,1,-20,-4,-2,-6,21:53:2@15/4/2015,999470636 
0,0,-1,2,1,-20,-4,-2,-6,21:53:2@15/4/2015,999470637 
0,0,-1,2,1,-20,-4,-2,-6,21:53:2@15/4/2015,999470638 
0,0,-1,2,1,-20,-4,-2,-6,21:53:2@15/4/2015,999470639 
0,0,-1,2,1,-20,-4,-2,-6,21:53:2@15/4/2015,999470640 
0,0,-1,2,1,-20,-4,-2,-6,21:53:2@15/4/2015,999470641 
0,0,-1,2,1,-20,-4,-2,-6,21:53:2@15/4/2015,999470642 
3,0,-1,2,1,-20,-4,-2,-6,21:53:2@15/4/2015,999470643 
3,-16,1,-2,3,11,-3,-6,-19,21:53:2@15/4/2015,999470644 
3,-16,1,-2,3,11,-3,-6,-19,21:53:2@15/4/2015,999470645 
3,-16,1,-2,3,11,-3,-6,-19,21:53:2@15/4/2015,999470646 
3,-16,1,-2,3,11,-3,-6,-19,21:53:2@15/4/2015,999470647 
3,-16,1,-2,3,11,-3,-6,-19,21:53:2@15/4/2015,999470648 
3,-16,1,-2,3,11,-3,-6,-19,21:53:2@15/4/2015,999470649 
3,-22,0,-3,-1,-6,3,6,10,21:53:2@15/4/2015,999470650 
3,-22,0,-3,-1,-6,3,6,10,21:53:2@15/4/2015,999470651 
3,-22,0,-3,-1,-6,3,6,10,21:53:2@15/4/2015,999470652 
3,-22,0,-3,-1,-6,3,6,10,21:53:2@15/4/2015,999470653 
3,-22,0,-3,-1,-6,3,6,10,21:53:2@15/4/2015,999470654 
3,-22,0,-3,-1,-6,3,6,10,21:53:2@15/4/2015,999470655 
3,-22,0,-3,-1,-6,3,6,10,21:53:2@15/4/2015,999470656 
3,-22,0,-3,-1,-6,3,6,10,21:53:2@15/4/2015,999470657 
3,-22,0,-3,-1,-6,3,6,10,21:53:2@15/4/2015,999470658 
3,-22,0,-3,-1,-6,3,6,10,21:53:2@15/4/2015,999470659 
3,-22,0,-3,-1,-6,3,6,10,21:53:2@15/4/2015,999470660 
3,-22,0,-3,-1,-6,3,6,10,21:53:2@15/4/2015,999470661 
3,-22,0,-3,-1,-6,3,6,10,21:53:2@15/4/2015,999470662 
3,-22,0,-3,-1,-6,3,6,10,21:53:2@15/4/2015,999470663 
3,-22,0,-3,-1,-6,3,6,10,21:53:2@15/4/2015,999470664 
3,3,2,1,-4,-2,-5,-3,-10,21:53:2@15/4/2015,999470665 
3,3,2,1,-4,-2,-5,-3,-10,21:53:2@15/4/2015,999470666 
3,3,2,1,-4,-2,-5,-3,-10,21:53:2@15/4/2015,999470667 
3,3,2,1,-4,-2,-5,-3,-10,21:53:2@15/4/2015,999470668 
3,3,2,1,-4,-2,-5,-3,-10,21:53:2@15/4/2015,999470669 
3,3,2,1,-4,-2,-5,-3,-10,21:53:2@15/4/2015,999470670 
3,3,2,1,-4,-2,-5,-3,-10,21:53:2@15/4/2015,999470671 
3,3,2,1,-4,-2,-5,-3,-10,21:53:2@15/4/2015,999470672 
3,2,0,2,4,-8,-4,-5,-4,21:53:2@15/4/2015,999470673 
3,2,0,2,4,-8,-4,-5,-4,21:53:2@15/4/2015,999470674 
3,2,0,2,4,-8,-4,-5,-4,21:53:2@15/4/2015,999470675 
3,2,0,2,4,-8,-4,-5,-4,21:53:2@15/4/2015,999470676 
3,2,0,2,4,-8,-4,-5,-4,21:53:2@15/4/2015,999470677 
3,2,0,2,4,-8,-4,-5,-4,21:53:2@15/4/2015,999470678 
3,-2,1,0,-2,-3,-3,-10,13,21:53:2@15/4/2015,999470679 
3,-2,1,0,-2,-3,-3,-10,13,21:53:2@15/4/2015,999470680 
3,-2,1,0,-2,-3,-3,-10,13,21:53:2@15/4/2015,999470681 
3,-2,1,0,-2,-3,-3,-10,13,21:53:2@15/4/2015,999470682 
3,-2,1,0,-2,-3,-3,-10,13,21:53:2@15/4/2015,999470683 
3,-2,1,0,-2,-3,-3,-10,13,21:53:2@15/4/2015,999470684 
3,-2,1,0,-2,-3,-3,-10,13,21:53:2@15/4/2015,999470685 
3,-2,1,0,-2,-3,-3,-10,13,21:53:2@15/4/2015,999470686 
3,-2,1,0,-2,-3,-3,-10,13,21:53:2@15/4/2015,999470687 
3,-2,1,0,-2,-3,-3,-10,13,21:53:2@15/4/2015,999470688 
3,-2,1,0,-2,-3,-3,-10,13,21:53:2@15/4/2015,999470689 
3,-2,1,0,-2,-3,-3,-10,13,21:53:2@15/4/2015,999470690 
3,-2,1,0,-2,-3,-3,-10,13,21:53:2@15/4/2015,999470691 
3,-2,1,0,-2,-3,-3,-10,13,21:53:2@15/4/2015,999470692 
3,-2,1,0,-2,-3,-3,-10,13,21:53:2@15/4/2015,999470693 
3,-6,-3,-3,-2,-9,-2,4,34,21:53:2@15/4/2015,999470694 
3,-6,-3,-3,-2,-9,-2,4,34,21:53:2@15/4/2015,999470695 
3,-6,-3,-3,-2,-9,-2,4,34,21:53:2@15/4/2015,999470696 
3,-6,-3,-3,-2,-9,-2,4,34,21:53:2@15/4/2015,999470697 
3,-6,-3,-3,-2,-9,-2,4,34,21:53:2@15/4/2015,999470698 
3,-6,-3,-3,-2,-9,-2,4,34,21:53:2@15/4/2015,999470699 
3,-6,-3,-3,-2,-9,-2,4,34,21:53:2@15/4/2015,999470700 
3,-6,-3,-3,-2,-9,-2,4,34,21:53:2@15/4/2015,999470701 
3,-5,5,1,1,9,-2,1,-11,21:53:2@15/4/2015,999470702 
3,-5,5,1,1,9,-2,1,-11,21:53:2@15/4/2015,999470703 
3,-5,5,1,1,9,-2,1,-11,21:53:2@15/4/2015,999470704 
3,-5,5,1,1,9,-2,1,-11,21:53:2@15/4/2015,999470705 
3,-5,5,1,1,9,-2,1,-11,21:53:2@15/4/2015,999470706 
3,-5,5,1,1,9,-2,1,-11,21:53:2@15/4/2015,999470707 
3,-5,5,1,1,9,-2,1,-11,21:53:2@15/4/2015,999470708 
3,4,-3,-3,-3,-4,1,2,-10,21:53:2@15/4/2015,999470709 
3,4,-3,-3,-3,-4,1,2,-10,21:53:2@15/4/2015,999470710 
3,4,-3,-3,-3,-4,1,2,-10,21:53:2@15/4/2015,999470711 
3,4,-3,-3,-3,-4,1,2,-10,21:53:2@15/4/2015,999470712 
3,4,-3,-3,-3,-4,1,2,-10,21:53:2@15/4/2015,999470713 
3,4,-3,-3,-3,-4,1,2,-10,21:53:2@15/4/2015,999470714 
3,4,-3,-3,-3,-4,1,2,-10,21:53:2@15/4/2015,999470715 
3,4,-3,-3,-3,-4,1,2,-10,21:53:2@15/4/2015,999470716 
3,4,-3,-3,-3,-4,1,2,-10,21:53:2@15/4/2015,999470717 
3,4,-3,-3,-3,-4,1,2,-10,21:53:2@15/4/2015,999470718 
3,4,-3,-3,-3,-4,1,2,-10,21:53:2@15/4/2015,999470719 
3,4,-3,-3,-3,-4,1,2,-10,21:53:2@15/4/2015,999470720 
3,4,-3,-3,-3,-4,1,2,-10,21:53:2@15/4/2015,999470721 
3,4,-3,-3,-3,-4,1,2,-10,21:53:2@15/4/2015,999470722 
3,4,-3,-3,-3,-4,1,2,-10,21:53:2@15/4/2015,999470723 
3,4,-3,-3,-3,-4,1,2,-10,21:53:2@15/4/2015,999470724 
3,-1,-2,-1,-2,2,0,-6,-17,21:53:2@15/4/2015,999470725 
3,-1,-2,-1,-2,2,0,-6,-17,21:53:2@15/4/2015,999470726 
3,-1,-2,-1,-2,2,0,-6,-17,21:53:2@15/4/2015,999470727 
3,-1,-2,-1,-2,2,0,-6,-17,21:53:2@15/4/2015,999470728 
3,-1,-2,-1,-2,2,0,-6,-17,21:53:2@15/4/2015,999470729 
3,-1,-2,-1,-2,2,0,-6,-17,21:53:2@15/4/2015,999470730 
3,-2,3,0,-1,2,1,-2,-18,21:53:2@15/4/2015,999470731 
3,-2,0,0,-1,-9,0,-2,13,21:53:2@15/4/2015,999470732 
3,-2,0,0,-1,-9,0,-2,13,21:53:2@15/4/2015,999470733 
3,-2,0,0,-1,-9,0,-2,13,21:53:2@15/4/2015,999470734 
3,-2,0,0,-1,-9,0,-2,13,21:53:2@15/4/2015,999470735 
3,-2,0,0,-1,-9,0,-2,13,21:53:2@15/4/2015,999470736 
3,-2,0,0,-1,-9,0,-2,13,21:53:2@15/4/2015,999470737 
3,-2,0,0,-1,-9,0,-2,13,21:53:2@15/4/2015,999470738 
3,15,2,2,1,1,6,4,68,21:53:2@15/4/2015,999470739 
3,15,2,2,1,1,6,4,68,21:53:2@15/4/2015,999470740 
3,15,2,2,1,1,6,4,68,21:53:2@15/4/2015,999470741 
3,15,2,2,1,1,6,4,68,21:53:2@15/4/2015,999470742 
3,15,2,2,1,1,6,4,68,21:53:2@15/4/2015,999470743 
3,15,2,2,1,1,6,4,68,21:53:2@15/4/2015,999470744 
3,15,2,2,1,1,6,4,68,21:53:2@15/4/2015,999470745 
3,15,2,2,1,1,6,4,68,21:53:2@15/4/2015,999470746 
3,15,2,2,1,1,6,4,68,21:53:2@15/4/2015,999470747 
3,15,2,2,1,1,6,4,68,21:53:2@15/4/2015,999470748 
3,15,2,2,1,1,6,4,68,21:53:2@15/4/2015,999470749 
3,15,2,2,1,1,6,4,68,21:53:2@15/4/2015,999470750 
3,15,2,2,1,1,6,4,68,21:53:2@15/4/2015,999470751 
3,15,2,2,1,1,6,4,68,21:53:2@15/4/2015,999470752 
3,15,2,2,1,1,6,4,68,21:53:2@15/4/2015,999470753 
3,-12,-5,-3,-5,-1,-3,0,-8,21:53:2@15/4/2015,999470754 
3,-12,-5,-3,-5,-1,-3,0,-8,21:53:2@15/4/2015,999470755 
3,-12,-5,-3,-5,-1,-3,0,-8,21:53:2@15/4/2015,999470756 
3,-12,-5,-3,-5,-1,-3,0,-8,21:53:2@15/4/2015,999470757 
3,-12,-5,-3,-5,-1,-3,0,-8,21:53:2@15/4/2015,999470758 
3,-12,-5,-3,-5,-1,-3,0,-8,21:53:2@15/4/2015,999470759 
3,-12,-5,-3,-5,-1,-3,0,-8,21:53:2@15/4/2015,999470760 
3,-12,-5,-3,-5,-1,-3,0,-8,21:53:2@15/4/2015,999470761 
3,-8,-1,5,-2,0,0,-2,-15,21:53:2@15/4/2015,999470762 
3,-8,-1,5,-2,0,0,-2,-15,21:53:2@15/4/2015,999470763 
3,-8,-1,5,-2,0,0,-2,-15,21:53:2@15/4/2015,999470764 
3,-8,-1,5,-2,0,0,-2,-15,21:53:2@15/4/2015,999470765 
3,-8,-1,5,-2,0,0,-2,-15,21:53:2@15/4/2015,999470766 
3,-8,-1,5,-2,0,0,-2,-15,21:53:2@15/4/2015,999470767 
3,-8,-1,5,-2,0,0,-2,-15,21:53:2@15/4/2015,999470768 
3,3,4,-2,-2,-1,1,0,17,21:53:2@15/4/2015,999470769 
3,3,4,-2,-2,-1,1,0,17,21:53:2@15/4/2015,999470770 
3,3,4,-2,-2,-1,1,0,17,21:53:2@15/4/2015,999470771 
3,3,4,-2,-2,-1,1,0,17,21:53:2@15/4/2015,999470772 
3,3,4,-2,-2,-1,1,0,17,21:53:2@15/4/2015,999470773 
3,3,4,-2,-2,-1,1,0,17,21:53:2@15/4/2015,999470774 
3,3,4,-2,-2,-1,1,0,17,21:53:2@15/4/2015,999470775 
3,3,4,-2,-2,-1,1,0,17,21:53:2@15/4/2015,999470776 
3,3,4,-2,-2,-1,1,0,17,21:53:2@15/4/2015,999470777 
3,3,4,-2,-2,-1,1,0,17,21:53:2@15/4/2015,999470778 
3,3,4,-2,-2,-1,1,0,17,21:53:2@15/4/2015,999470779 
3,3,4,-2,-2,-1,1,0,17,21:53:2@15/4/2015,999470780 
3,3,4,-2,-2,-1,1,0,17,21:53:2@15/4/2015,999470781 
3,3,4,-2,-2,-1,1,0,17,21:53:2@15/4/2015,999470782 
3,3,4,-2,-2,-1,1,0,17,21:53:2@15/4/2015,999470783 
3,3,4,-2,-2,-1,1,0,17,21:53:2@15/4/2015,999470784 
3,-6,-3,0,-1,0,3,-2,-51,21:53:2@15/4/2015,999470785 
3,-6,-3,0,-1,0,3,-2,-51,21:53:2@15/4/2015,999470786 
3,-6,-3,0,-1,0,3,-2,-51,21:53:2@15/4/2015,999470787 
3,-6,-3,0,-1,0,3,-2,-51,21:53:2@15/4/2015,999470788 
3,-6,-3,0,-1,0,3,-2,-51,21:53:2@15/4/2015,999470789 
3,-6,-3,0,-1,0,3,-2,-51,21:53:2@15/4/2015,999470790 
3,-6,-3,0,-1,0,3,-2,-51,21:53:2@15/4/2015,999470791 
3,-1,0,-1,-2,-1,-1,-4,-12,21:53:2@15/4/2015,999470792 
3,-1,0,-1,-2,-1,-1,-4,-12,21:53:2@15/4/2015,999470793 
3,-1,0,-1,-2,-1,-1,-4,-12,21:53:2@15/4/2015,999470794 
3,-1,0,-1,-2,-1,-1,-4,-12,21:53:2@15/4/2015,999470795 
3,-1,0,-1,-2,-1,-1,-4,-12,21:53:2@15/4/2015,999470796 
3,-1,0,-1,-2,-1,-1,-4,-12,21:53:2@15/4/2015,999470797 
3,-1,0,-1,-2,-1,-1,-4,-12,21:53:2@15/4/2015,999470798 
3,-6,-1,0,-3,-3,0,-1,-17,21:53:2@15/4/2015,999470799 
3,-6,-1,0,-3,-3,0,-1,-17,21:53:2@15/4/2015,999470800 
3,-6,-1,0,-3,-3,0,-1,-17,21:53:2@15/4/2015,999470801 
3,-6,-1,0,-3,-3,0,-1,-17,21:53:2@15/4/2015,999470802 
3,-6,-1,0,-3,-3,0,-1,-17,21:53:2@15/4/2015,999470803 
3,-6,-1,0,-3,-3,0,-1,-17,21:53:2@15/4/2015,999470804 
3,-6,-1,0,-3,-3,0,-1,-17,21:53:2@15/4/2015,999470805 
3,-6,-1,0,-3,-3,0,-1,-17,21:53:2@15/4/2015,999470806 
3,-6,-1,0,-3,-3,0,-1,-17,21:53:2@15/4/2015,999470807 
3,-6,-1,0,-3,-3,0,-1,-17,21:53:2@15/4/2015,999470808 
3,-6,-1,0,-3,-3,0,-1,-17,21:53:2@15/4/2015,999470809 
3,-6,-1,0,-3,-3,0,-1,-17,21:53:2@15/4/2015,999470810 
3,-6,-1,0,-3,-3,0,-1,-17,21:53:2@15/4/2015,999470811 
3,-6,-1,0,-3,-3,0,-1,-17,21:53:2@15/4/2015,999470812 
3,-6,-1,0,-3,-3,0,-1,-17,21:53:2@15/4/2015,999470813 
3,0,1,-5,-6,-4,-3,-2,-6,21:53:2@15/4/2015,999470814 
3,0,1,-5,-6,-4,-3,-2,-6,21:53:2@15/4/2015,999470815 
3,0,1,-5,-6,-4,-3,-2,-6,21:53:2@15/4/2015,999470816 
3,0,1,-5,-6,-4,-3,-2,-6,21:53:2@15/4/2015,999470817 
3,0,1,-5,-6,-4,-3,-2,-6,21:53:2@15/4/2015,999470818 
3,0,1,-5,-6,-4,-3,-2,-6,21:53:2@15/4/2015,999470819 
3,0,1,-5,-6,-4,-3,-2,-6,21:53:2@15/4/2015,999470820 
3,0,1,-5,-6,-4,-3,-2,-6,21:53:2@15/4/2015,999470821 
3,-6,-2,3,1,-2,-2,-3,0,21:53:2@15/4/2015,999470822 
3,-6,-2,3,1,-2,-2,-3,0,21:53:2@15/4/2015,999470823 
3,-6,-2,3,1,-2,-2,-3,0,21:53:2@15/4/2015,999470824 
3,-6,-2,3,1,-2,-2,-3,0,21:53:2@15/4/2015,999470825 
3,-6,-2,3,1,-2,-2,-3,0,21:53:2@15/4/2015,999470826 
3,-6,-2,3,1,-2,-2,-3,0,21:53:2@15/4/2015,999470827 
3,-6,-2,3,1,-2,-2,-3,0,21:53:2@15/4/2015,999470828 
3,0,-3,-4,-3,-2,-3,0,6,21:53:2@15/4/2015,999470829 
3,0,-3,-4,-3,-2,-3,0,6,21:53:2@15/4/2015,999470830 
3,0,-3,-4,-3,-2,-3,0,6,21:53:2@15/4/2015,999470831 
3,0,-3,-4,-3,-2,-3,0,6,21:53:2@15/4/2015,999470832 
3,0,-3,-4,-3,-2,-3,0,6,21:53:2@15/4/2015,999470833 
3,0,-3,-4,-3,-2,-3,0,6,21:53:2@15/4/2015,999470834 
3,0,-3,-4,-3,-2,-3,0,6,21:53:2@15/4/2015,999470835 
3,0,-3,-4,-3,-2,-3,0,6,21:53:2@15/4/2015,999470836 
3,0,-3,-4,-3,-2,-3,0,6,21:53:2@15/4/2015,999470837 
3,0,-3,-4,-3,-2,-3,0,6,21:53:2@15/4/2015,999470838 
3,0,-3,-4,-3,-2,-3,0,6,21:53:2@15/4/2015,999470839 
3,0,-3,-4,-3,-2,-3,0,6,21:53:2@15/4/2015,999470840 
3,0,-3,-4,-3,-2,-3,0,6,21:53:2@15/4/2015,999470841 
3,0,-3,-4,-3,-2,-3,0,6,21:53:2@15/4/2015,999470842 
3,0,-3,-4,-3,-2,-3,0,6,21:53:2@15/4/2015,999470843 
3,0,-3,-4,-3,-2,-3,0,6,21:53:2@15/4/2015,999470844 
3,1,-1,-3,-2,1,1,-1,-7,21:53:2@15/4/2015,999470845 
3,1,-1,-3,-2,1,1,-1,-7,21:53:2@15/4/2015,999470846 
3,1,-1,-3,-2,1,1,-1,-7,21:53:2@15/4/2015,999470847 
3,1,-1,-3,-2,1,1,-1,-7,21:53:2@15/4/2015,999470848 
3,1,-1,-3,-2,1,1,-1,-7,21:53:2@15/4/2015,999470849 
3,1,-1,-3,-2,1,1,-1,-7,21:53:2@15/4/2015,999470850 
3,1,-1,-3,-2,1,1,-1,-7,21:53:2@15/4/2015,999470851 
3,-13,-6,2,-2,-1,0,0,-5,21:53:2@15/4/2015,999470852 
3,-13,-6,2,-2,-1,0,0,-5,21:53:2@15/4/2015,999470853 
3,-13,-6,2,-2,-1,0,0,-5,21:53:2@15/4/2015,999470854 
3,-13,-6,2,-2,-1,0,0,-5,21:53:2@15/4/2015,999470855 
3,-13,-6,2,-2,-1,0,0,-5,21:53:2@15/4/2015,999470856 
3,-13,-6,2,-2,-1,0,0,-5,21:53:2@15/4/2015,999470857 
3,-13,-6,2,-2,-1,0,0,-5,21:53:2@15/4/2015,999470858 
3,-5,-1,-2,1,1,0,-1,-2,21:53:2@15/4/2015,999470859 
3,-5,-1,-2,1,1,0,-1,-2,21:53:2@15/4/2015,999470860 
3,-5,-1,-2,1,1,0,-1,-2,21:53:2@15/4/2015,999470861 
3,-5,-1,-2,1,1,0,-1,-2,21:53:2@15/4/2015,999470862 
3,-5,-1,-2,1,1,0,-1,-2,21:53:2@15/4/2015,999470863 
3,-5,-1,-2,1,1,0,-1,-2,21:53:2@15/4/2015,999470864 
3,-5,-1,-2,1,1,0,-1,-2,21:53:2@15/4/2015,999470865 
3,-5,-1,-2,1,1,0,-1,-2,21:53:2@15/4/2015,999470866 
3,-5,-1,-2,1,1,0,-1,-2,21:53:2@15/4/2015,999470867 
3,-5,-1,-2,1,1,0,-1,-2,21:53:2@15/4/2015,999470868 
3,-5,-1,-2,1,1,0,-1,-2,21:53:2@15/4/2015,999470869 
3,-5,-1,-2,1,1,0,-1,-2,21:53:2@15/4/2015,999470870 
3,-5,-1,-2,1,1,0,-1,-2,21:53:2@15/4/2015,999470871 
3,-5,-1,-2,1,1,0,-1,-2,21:53:2@15/4/2015,999470872 
3,-5,-1,-2,1,1,0,-1,-2,21:53:2@15/4/2015,999470873 
3,0,-1,-3,-3,-3,1,-2,-1,21:53:2@15/4/2015,999470874 
3,0,-1,-3,-3,-3,1,-2,-1,21:53:2@15/4/2015,999470875 
3,0,-1,-3,-3,-3,1,-2,-1,21:53:2@15/4/2015,999470876 
3,0,-1,-3,-3,-3,1,-2,-1,21:53:2@15/4/2015,999470877 
3,0,-1,-3,-3,-3,1,-2,-1,21:53:2@15/4/2015,999470878 
3,0,-1,-3,-3,-3,1,-2,-1,21:53:2@15/4/2015,999470879 
3,0,-1,-3,-3,-3,1,-2,-1,21:53:2@15/4/2015,999470880 
3,0,-1,-3,-3,-3,1,-2,-1,21:53:2@15/4/2015,999470881 
3,1,0,-3,-1,-1,-3,-3,3,21:53:2@15/4/2015,999470882 
3,1,0,-3,-1,-1,-3,-3,3,21:53:2@15/4/2015,999470883 
3,1,0,-3,-1,-1,-3,-3,3,21:53:2@15/4/2015,999470884 
3,1,0,-3,-1,-1,-3,-3,3,21:53:2@15/4/2015,999470885 
3,1,0,-3,-1,-1,-3,-3,3,21:53:2@15/4/2015,999470886 
3,1,0,-3,-1,-1,-3,-3,3,21:53:2@15/4/2015,999470887 
3,1,0,-3,-1,-1,-3,-3,3,21:53:2@15/4/2015,999470888 
3,2,0,1,0,-2,-1,-4,-26,21:53:2@15/4/2015,999470889 
3,2,0,1,0,-2,-1,-4,-26,21:53:2@15/4/2015,999470890 
3,2,0,1,0,-2,-1,-4,-26,21:53:2@15/4/2015,999470891 
3,2,0,1,0,-2,-1,-4,-26,21:53:2@15/4/2015,999470892 
3,2,0,1,0,-2,-1,-4,-26,21:53:2@15/4/2015,999470893 
3,2,0,1,0,-2,-1,-4,-26,21:53:2@15/4/2015,999470894 
3,2,0,1,0,-2,-1,-4,-26,21:53:2@15/4/2015,999470895 
3,2,0,1,0,-2,-1,-4,-26,21:53:2@15/4/2015,999470896 
3,2,0,1,0,-2,-1,-4,-26,21:53:2@15/4/2015,999470897 
3,2,0,1,0,-2,-1,-4,-26,21:53:2@15/4/2015,999470898 
3,2,0,1,0,-2,-1,-4,-26,21:53:2@15/4/2015,999470899 
3,2,0,1,0,-2,-1,-4,-26,21:53:2@15/4/2015,999470900 
3,2,0,1,0,-2,-1,-4,-26,21:53:2@15/4/2015,999470901 
3,2,0,1,0,-2,-1,-4,-26,21:53:2@15/4/2015,999470902 
3,2,0,1,0,-2,-1,-4,-26,21:53:2@15/4/2015,999470903 
3,2,0,1,0,-2,-1,-4,-26,21:53:2@15/4/2015,999470904 
3,1,-1,-5,-7,0,-1,-1,-7,21:53:2@15/4/2015,999470905 
3,1,-1,-5,-7,0,-1,-1,-7,21:53:2@15/4/2015,999470906 
3,1,-1,-5,-7,0,-1,-1,-7,21:53:2@15/4/2015,999470907 
3,1,-1,-5,-7,0,-1,-1,-7,21:53:2@15/4/2015,999470908 
3,1,-1,-5,-7,0,-1,-1,-7,21:53:2@15/4/2015,999470909 
3,1,-1,-5,-7,0,-1,-1,-7,21:53:2@15/4/2015,999470910 
3,1,-1,-5,-7,0,-1,-1,-7,21:53:2@15/4/2015,999470911 
3,-4,-2,8,16,-1,0,-2,-10,21:53:2@15/4/2015,999470912 
3,-4,-2,8,16,-1,0,-2,-10,21:53:2@15/4/2015,999470913 
3,-4,-2,8,16,-1,0,-2,-10,21:53:2@15/4/2015,999470914 
3,-4,-2,8,16,-1,0,-2,-10,21:53:2@15/4/2015,999470915 
3,-4,-2,8,16,-1,0,-2,-10,21:53:2@15/4/2015,999470916 
3,-4,-2,8,16,-1,0,-2,-10,21:53:2@15/4/2015,999470917 
3,-4,-2,8,16,-1,0,-2,-10,21:53:2@15/4/2015,999470918 
3,-3,-5,-5,-9,-3,1,1,2,21:53:2@15/4/2015,999470919 
3,-3,-5,-5,-9,-3,1,1,2,21:53:2@15/4/2015,999470920 
3,-3,-5,-5,-9,-3,1,1,2,21:53:2@15/4/2015,999470921 
3,-3,-5,-5,-9,-3,1,1,2,21:53:2@15/4/2015,999470922 
3,-3,-5,-5,-9,-3,1,1,2,21:53:2@15/4/2015,999470923 
3,-3,-5,-5,-9,-3,1,1,2,21:53:2@15/4/2015,999470924 
3,-3,-5,-5,-9,-3,1,1,2,21:53:2@15/4/2015,999470925 
3,-3,-5,-5,-9,-3,1,1,2,21:53:2@15/4/2015,999470926 
3,-3,-5,-5,-9,-3,1,1,2,21:53:2@15/4/2015,999470927 
3,-3,-5,-5,-9,-3,1,1,2,21:53:2@15/4/2015,999470928 
3,-3,-5,-5,-9,-3,1,1,2,21:53:2@15/4/2015,999470929 
3,-3,-5,-5,-9,-3,1,1,2,21:53:2@15/4/2015,999470930 
3,-3,-5,-5,-9,-3,1,1,2,21:53:2@15/4/2015,999470931 
3,-3,-5,-5,-9,-3,1,1,2,21:53:2@15/4/2015,999470932 
3,-3,-5,-5,-9,-3,1,1,2,21:53:2@15/4/2015,999470933 
3,-2,-2,2,-7,0,-1,1,10,21:53:2@15/4/2015,999470934 
3,-2,-2,2,-7,0,-1,1,10,21:53:2@15/4/2015,999470935 
3,-2,-2,2,-7,0,-1,1,10,21:53:2@15/4/2015,999470936 
3,-2,-2,2,-7,0,-1,1,10,21:53:2@15/4/2015,999470937 
3,-2,-2,2,-7,0,-1,1,10,21:53:2@15/4/2015,999470938 
3,-2,-2,2,-7,0,-1,1,10,21:53:2@15/4/2015,999470939 
3,-2,-2,2,-7,0,-1,1,10,21:53:2@15/4/2015,999470940 
3,-2,-2,2,-7,0,-1,1,10,21:53:2@15/4/2015,999470941 
3,0,-2,20,9,0,-2,0,3,21:53:2@15/4/2015,999470942 
3,0,-2,20,9,0,-2,0,3,21:53:2@15/4/2015,999470943 
3,0,-2,20,9,0,-2,0,3,21:53:2@15/4/2015,999470944 
3,0,-2,20,9,0,-2,0,3,21:53:2@15/4/2015,999470945 
3,0,-2,20,9,0,-2,0,3,21:53:2@15/4/2015,999470946 
3,0,-2,20,9,0,-2,0,3,21:53:2@15/4/2015,999470947 
3,0,-2,20,9,0,-2,0,3,21:53:2@15/4/2015,999470948 
3,2,-1,-10,-8,-2,-1,-1,4,21:53:2@15/4/2015,999470949 
3,2,-1,-10,-8,-2,-1,-1,4,21:53:2@15/4/2015,999470950 
3,2,-1,-10,-8,-2,-1,-1,4,21:53:2@15/4/2015,999470951 
3,2,-1,-10,-8,-2,-1,-1,4,21:53:2@15/4/2015,999470952 
3,2,-1,-10,-8,-2,-1,-1,4,21:53:2@15/4/2015,999470953 
3,2,-1,-10,-8,-2,-1,-1,4,21:53:2@15/4/2015,999470954 
3,2,-1,-10,-8,-2,-1,-1,4,21:53:2@15/4/2015,999470955 
3,2,-1,-10,-8,-2,-1,-1,4,21:53:2@15/4/2015,999470956 
3,2,-1,-10,-8,-2,-1,-1,4,21:53:2@15/4/2015,999470957 
3,2,-1,-10,-8,-2,-1,-1,4,21:53:2@15/4/2015,999470958 
3,2,-1,-10,-8,-2,-1,-1,4,21:53:2@15/4/2015,999470959 
3,2,-1,-10,-8,-2,-1,-1,4,21:53:2@15/4/2015,999470960 
3,2,-1,-10,-8,-2,-1,-1,4,21:53:2@15/4/2015,999470961 
3,2,-1,-10,-8,-2,-1,-1,4,21:53:2@15/4/2015,999470962 
3,2,-1,-10,-8,-2,-1,-1,4,21:53:2@15/4/2015,999470963 
3,2,-1,-10,-8,-2,-1,-1,4,21:53:2@15/4/2015,999470964 
3,-1,-1,-19,-13,-3,-3,0,-8,21:53:2@15/4/2015,999470965 
3,-1,-1,-19,-13,-3,-3,0,-8,21:53:2@15/4/2015,999470966 
3,-1,-1,-19,-13,-3,-3,0,-8,21:53:2@15/4/2015,999470967 
3,-1,-1,-19,-13,-3,-3,0,-8,21:53:2@15/4/2015,999470968 
3,-1,-1,-19,-13,-3,-3,0,-8,21:53:2@15/4/2015,999470969 
3,-1,-1,-19,-13,-3,-3,0,-8,21:53:2@15/4/2015,999470970 
3,0,-3,-2,-12,-5,0,-1,0,21:53:2@15/4/2015,999470971 
3,0,1,1,-1,1,-2,0,6,21:53:2@15/4/2015,999470972 
3,0,1,1,-1,1,-2,0,6,21:53:2@15/4/2015,999470973 
3,0,1,1,-1,1,-2,0,6,21:53:2@15/4/2015,999470974 
3,0,1,1,-1,1,-2,0,6,21:53:2@15/4/2015,999470975 
3,0,1,1,-1,1,-2,0,6,21:53:2@15/4/2015,999470976 
3,0,1,1,-1,1,-2,0,6,21:53:2@15/4/2015,999470977 
3,0,1,1,-1,1,-2,0,6,21:53:2@15/4/2015,999470978 
3,-1,0,1,1,-2,0,-1,0,21:53:2@15/4/2015,999470979 
3,-1,0,1,1,-2,0,-1,0,21:53:2@15/4/2015,999470980 
3,-1,0,1,1,-2,0,-1,0,21:53:2@15/4/2015,999470981 
3,-1,0,1,1,-2,0,-1,0,21:53:2@15/4/2015,999470982 
3,-1,0,1,1,-2,0,-1,0,21:53:2@15/4/2015,999470983 
3,-1,0,1,1,-2,0,-1,0,21:53:2@15/4/2015,999470984 
3,-1,0,1,1,-2,0,-1,0,21:53:2@15/4/2015,999470985 
3,-1,0,1,1,-2,0,-1,0,21:53:2@15/4/2015,999470986 
3,-1,0,1,1,-2,0,-1,0,21:53:2@15/4/2015,999470987 
3,-1,0,1,1,-2,0,-1,0,21:53:2@15/4/2015,999470988 
3,-1,0,1,1,-2,0,-1,0,21:53:2@15/4/2015,999470989 
3,-1,0,1,1,-2,0,-1,0,21:53:2@15/4/2015,999470990 
3,-1,0,1,1,-2,0,-1,0,21:53:2@15/4/2015,999470991 
3,-1,0,1,1,-2,0,-1,0,21:53:2@15/4/2015,999470992 
3,-1,0,1,1,-2,0,-1,0,21:53:2@15/4/2015,999470993 
3,2,0,-3,1,-2,-1,-2,2,21:53:2@15/4/2015,999470994 
3,2,0,-3,1,-2,-1,-2,2,21:53:2@15/4/2015,999470995 
3,2,0,-3,1,-2,-1,-2,2,21:53:2@15/4/2015,999470996 
3,2,0,-3,1,-2,-1,-2,2,21:53:2@15/4/2015,999470997 
3,2,0,-3,1,-2,-1,-2,2,21:53:2@15/4/2015,999470998 
3,2,0,-3,1,-2,-1,-2,2,21:53:2@15/4/2015,999470999 
3,2,0,-3,1,-2,-1,-2,2,21:53:3@15/4/2015,999471000 
3,2,0,-3,1,-2,-1,-2,2,21:53:3@15/4/2015,999471001 
3,2,0,-3,1,-2,-1,-2,2,21:53:3@15/4/2015,999471002 
3,2,0,-3,1,-2,-1,-2,2,21:53:3@15/4/2015,999471003 
3,2,0,-3,1,-2,-1,-2,2,21:53:3@15/4/2015,999471004 
3,2,0,-3,1,-2,-1,-2,2,21:53:3@15/4/2015,999471005 
3,2,0,-3,1,-2,-1,-2,2,21:53:3@15/4/2015,999471006 
3,2,0,-3,1,-2,-1,-2,2,21:53:3@15/4/2015,999471007 
3,2,0,-3,1,-2,-1,-2,2,21:53:3@15/4/2015,999471008 
3,2,0,-3,1,-2,-1,-2,2,21:53:3@15/4/2015,999471009 
3,-1,1,7,4,1,-2,-2,-2,21:53:3@15/4/2015,999471010 
3,-1,1,7,4,1,-2,-2,-2,21:53:3@15/4/2015,999471011 
3,0,0,-4,9,-2,0,-1,-2,21:53:3@15/4/2015,999471012 
3,0,0,-4,9,-2,0,-1,-2,21:53:3@15/4/2015,999471013 
3,0,0,-4,9,-2,0,-1,-2,21:53:3@15/4/2015,999471014 
3,0,0,-4,9,-2,0,-1,-2,21:53:3@15/4/2015,999471015 
3,0,0,-4,9,-2,0,-1,-2,21:53:3@15/4/2015,999471016 
3,0,0,-4,9,-2,0,-1,-2,21:53:3@15/4/2015,999471017 
3,0,0,-4,9,-2,0,-1,-2,21:53:3@15/4/2015,999471018 
3,0,0,-4,9,-2,0,-1,-2,21:53:3@15/4/2015,999471019 
3,0,0,-4,9,-2,0,-1,-2,21:53:3@15/4/2015,999471020 
3,0,0,-4,9,-2,0,-1,-2,21:53:3@15/4/2015,999471021 
3,0,0,-4,9,-2,0,-1,-2,21:53:3@15/4/2015,999471022 
3,0,0,-4,9,-2,0,-1,-2,21:53:3@15/4/2015,999471023 
3,0,0,-4,9,-2,0,-1,-2,21:53:3@15/4/2015,999471024 
3,1,2,9,14,2,0,-3,-2,21:53:3@15/4/2015,999471025 
3,1,2,9,14,2,0,-3,-2,21:53:3@15/4/2015,999471026 
3,1,2,9,14,2,0,-3,-2,21:53:3@15/4/2015,999471027 
3,1,2,9,14,2,0,-3,-2,21:53:3@15/4/2015,999471028 
3,1,2,9,14,2,0,-3,-2,21:53:3@15/4/2015,999471029 
3,1,2,9,14,2,0,-3,-2,21:53:3@15/4/2015,999471030 
3,1,2,9,14,2,0,-3,-2,21:53:3@15/4/2015,999471031 
3,-3,-1,0,-5,0,-1,-2,0,21:53:3@15/4/2015,999471032 
3,-3,-1,0,-5,0,-1,-2,0,21:53:3@15/4/2015,999471033 
3,-3,-1,0,-5,0,-1,-2,0,21:53:3@15/4/2015,999471034 
3,-3,-1,0,-5,0,-1,-2,0,21:53:3@15/4/2015,999471035 
3,-3,-1,0,-5,0,-1,-2,0,21:53:3@15/4/2015,999471036 
3,-3,-1,0,-5,0,-1,-2,0,21:53:3@15/4/2015,999471037 
3,-3,-1,0,-5,0,-1,-2,0,21:53:3@15/4/2015,999471038 
3,-6,-4,-12,-8,-1,0,-2,-1,21:53:3@15/4/2015,999471039 
3,-6,-4,-12,-8,-1,0,-2,-1,21:53:3@15/4/2015,999471040 
3,-6,-4,-12,-8,-1,0,-2,-1,21:53:3@15/4/2015,999471041 
3,-6,-4,-12,-8,-1,0,-2,-1,21:53:3@15/4/2015,999471042 
3,-6,-4,-12,-8,-1,0,-2,-1,21:53:3@15/4/2015,999471043 
3,-6,-4,-12,-8,-1,0,-2,-1,21:53:3@15/4/2015,999471044 
3,-6,-4,-12,-8,-1,0,-2,-1,21:53:3@15/4/2015,999471045 
3,-6,-4,-12,-8,-1,0,-2,-1,21:53:3@15/4/2015,999471046 
3,-6,-4,-12,-8,-1,0,-2,-1,21:53:3@15/4/2015,999471047 
3,-6,-4,-12,-8,-1,0,-2,-1,21:53:3@15/4/2015,999471048 
3,-6,-4,-12,-8,-1,0,-2,-1,21:53:3@15/4/2015,999471049 
3,-6,-4,-12,-8,-1,0,-2,-1,21:53:3@15/4/2015,999471050 
3,-6,-4,-12,-8,-1,0,-2,-1,21:53:3@15/4/2015,999471051 
3,-6,-4,-12,-8,-1,0,-2,-1,21:53:3@15/4/2015,999471052 
3,-6,-4,-12,-8,-1,0,-2,-1,21:53:3@15/4/2015,999471053 
3,1,2,5,-2,1,0,0,3,21:53:3@15/4/2015,999471054 
3,1,2,5,-2,1,0,0,3,21:53:3@15/4/2015,999471055 
3,1,2,5,-2,1,0,0,3,21:53:3@15/4/2015,999471056 
3,1,2,5,-2,1,0,0,3,21:53:3@15/4/2015,999471057 
3,1,2,5,-2,1,0,0,3,21:53:3@15/4/2015,999471058 
3,1,2,5,-2,1,0,0,3,21:53:3@15/4/2015,999471059 
3,1,2,5,-2,1,0,0,3,21:53:3@15/4/2015,999471060 
3,1,2,5,-2,1,0,0,3,21:53:3@15/4/2015,999471061 
3,1,2,5,-2,1,0,0,3,21:53:3@15/4/2015,999471062 
0,1,2,5,-2,1,0,0,3,21:53:3@15/4/2015,999471063 
0,-4,-3,-5,-4,0,-1,-1,-3,21:53:3@15/4/2015,999471064 
0,-4,-3,-5,-4,0,-1,-1,-3,21:53:3@15/4/2015,999471065 
0,-4,-3,-5,-4,0,-1,-1,-3,21:53:3@15/4/2015,999471066 
0,-4,-3,-5,-4,0,-1,-1,-3,21:53:3@15/4/2015,999471067 
0,-4,-3,-5,-4,0,-1,-1,-3,21:53:3@15/4/2015,999471068 
0,-4,-3,-5,-4,0,-1,-1,-3,21:53:3@15/4/2015,999471069 
0,-4,-6,-2,-5,-2,0,-2,0,21:53:3@15/4/2015,999471070 
0,-4,-6,-2,-5,-2,0,-2,0,21:53:3@15/4/2015,999471071 
0,-4,-6,-2,-5,-2,0,-2,0,21:53:3@15/4/2015,999471072 
0,-4,-6,-2,-5,-2,0,-2,0,21:53:3@15/4/2015,999471073 
0,-4,-6,-2,-5,-2,0,-2,0,21:53:3@15/4/2015,999471074 
0,-4,-6,-2,-5,-2,0,-2,0,21:53:3@15/4/2015,999471075 
0,-4,-6,-2,-5,-2,0,-2,0,21:53:3@15/4/2015,999471076 
0,-4,-6,-2,-5,-2,0,-2,0,21:53:3@15/4/2015,999471077 
0,-4,-6,-2,-5,-2,0,-2,0,21:53:3@15/4/2015,999471078 
0,-4,-6,-2,-5,-2,0,-2,0,21:53:3@15/4/2015,999471079 
0,-4,-6,-2,-5,-2,0,-2,0,21:53:3@15/4/2015,999471080 
0,-4,-6,-2,-5,-2,0,-2,0,21:53:3@15/4/2015,999471081 
0,-4,-6,-2,-5,-2,0,-2,0,21:53:3@15/4/2015,999471082 
0,-4,-6,-2,-5,-2,0,-2,0,21:53:3@15/4/2015,999471083 
0,-4,-6,-2,-5,-2,0,-2,0,21:53:3@15/4/2015,999471084 
0,1,1,-1,-11,-5,0,0,1,21:53:3@15/4/2015,999471085 
0,1,1,-1,-11,-5,0,0,1,21:53:3@15/4/2015,999471086 
0,1,1,-1,-11,-5,0,0,1,21:53:3@15/4/2015,999471087 
0,1,1,-1,-11,-5,0,0,1,21:53:3@15/4/2015,999471088 
0,1,1,-1,-11,-5,0,0,1,21:53:3@15/4/2015,999471089 
0,1,1,-1,-11,-5,0,0,1,21:53:3@15/4/2015,999471090 
0,1,1,-1,-11,-5,0,0,1,21:53:3@15/4/2015,999471091 
0,0,-2,3,23,8,1,-1,0,21:53:3@15/4/2015,999471092 
0,0,-2,3,23,8,1,-1,0,21:53:3@15/4/2015,999471093 
0,0,-2,3,23,8,1,-1,0,21:53:3@15/4/2015,999471094 
0,0,-2,3,23,8,1,-1,0,21:53:3@15/4/2015,999471095 
0,0,-2,3,23,8,1,-1,0,21:53:3@15/4/2015,999471096 
0,0,-2,3,23,8,1,-1,0,21:53:3@15/4/2015,999471097 
0,0,-2,3,23,8,1,-1,0,21:53:3@15/4/2015,999471098 
0,-1,0,-10,-14,-4,-1,0,-2,21:53:3@15/4/2015,999471099 
0,-1,0,-10,-14,-4,-1,0,-2,21:53:3@15/4/2015,999471100 
0,-1,0,-10,-14,-4,-1,0,-2,21:53:3@15/4/2015,999471101 
0,-1,0,-10,-14,-4,-1,0,-2,21:53:3@15/4/2015,999471102 
0,-1,0,-10,-14,-4,-1,0,-2,21:53:3@15/4/2015,999471103 
0,-1,0,-10,-14,-4,-1,0,-2,21:53:3@15/4/2015,999471104 
0,-1,0,-10,-14,-4,-1,0,-2,21:53:3@15/4/2015,999471105 
0,-1,0,-10,-14,-4,-1,0,-2,21:53:3@15/4/2015,999471106 
0,-1,0,-10,-14,-4,-1,0,-2,21:53:3@15/4/2015,999471107 
0,-1,0,-10,-14,-4,-1,0,-2,21:53:3@15/4/2015,999471108 
0,-1,0,-10,-14,-4,-1,0,-2,21:53:3@15/4/2015,999471109 
0,-1,0,-10,-14,-4,-1,0,-2,21:53:3@15/4/2015,999471110 
0,-1,0,-10,-14,-4,-1,0,-2,21:53:3@15/4/2015,999471111 
0,-1,0,-10,-14,-4,-1,0,-2,21:53:3@15/4/2015,999471112 
0,-1,0,-10,-14,-4,-1,0,-2,21:53:3@15/4/2015,999471113 
0,0,-3,-2,-1,0,0,1,0,21:53:3@15/4/2015,999471114 
0,0,-3,-2,-1,0,0,1,0,21:53:3@15/4/2015,999471115 
0,0,-3,-2,-1,0,0,1,0,21:53:3@15/4/2015,999471116 
0,0,-3,-2,-1,0,0,1,0,21:53:3@15/4/2015,999471117 
0,0,-3,-2,-1,0,0,1,0,21:53:3@15/4/2015,999471118 
0,0,-3,-2,-1,0,0,1,0,21:53:3@15/4/2015,999471119 
0,0,-3,-2,-1,0,0,1,0,21:53:3@15/4/2015,999471120 
0,0,-3,-2,-1,0,0,1,0,21:53:3@15/4/2015,999471121 
0,2,1,-1,-1,-1,-1,-1,-1,21:53:3@15/4/2015,999471122 
0,2,1,-1,-1,-1,-1,-1,-1,21:53:3@15/4/2015,999471123 
0,2,1,-1,-1,-1,-1,-1,-1,21:53:3@15/4/2015,999471124 
0,2,1,-1,-1,-1,-1,-1,-1,21:53:3@15/4/2015,999471125 
0,2,1,-1,-1,-1,-1,-1,-1,21:53:3@15/4/2015,999471126 
0,2,1,-1,-1,-1,-1,-1,-1,21:53:3@15/4/2015,999471127 
0,2,1,-1,-1,-1,-1,-1,-1,21:53:3@15/4/2015,999471128 
0,-3,-1,-4,-6,0,-5,-1,-1,21:53:3@15/4/2015,999471129 
0,-3,-1,-4,-6,0,-5,-1,-1,21:53:3@15/4/2015,999471130 
0,-3,-1,-4,-6,0,-5,-1,-1,21:53:3@15/4/2015,999471131 
0,-3,-1,-4,-6,0,-5,-1,-1,21:53:3@15/4/2015,999471132 
0,-3,-1,-4,-6,0,-5,-1,-1,21:53:3@15/4/2015,999471133 
0,-3,-1,-4,-6,0,-5,-1,-1,21:53:3@15/4/2015,999471134 
0,-3,-1,-4,-6,0,-5,-1,-1,21:53:3@15/4/2015,999471135 
0,-3,-1,-4,-6,0,-5,-1,-1,21:53:3@15/4/2015,999471136 
0,-3,-1,-4,-6,0,-5,-1,-1,21:53:3@15/4/2015,999471137 
0,-3,-1,-4,-6,0,-5,-1,-1,21:53:3@15/4/2015,999471138 
0,-3,-1,-4,-6,0,-5,-1,-1,21:53:3@15/4/2015,999471139 
0,-3,-1,-4,-6,0,-5,-1,-1,21:53:3@15/4/2015,999471140 
0,-3,-1,-4,-6,0,-5,-1,-1,21:53:3@15/4/2015,999471141 
0,-3,-1,-4,-6,0,-5,-1,-1,21:53:3@15/4/2015,999471142 
0,-3,-1,-4,-6,0,-5,-1,-1,21:53:3@15/4/2015,999471143 
0,-3,-1,-4,-6,0,-5,-1,-1,21:53:3@15/4/2015,999471144 
0,-1,-1,0,-2,1,0,-4,-2,21:53:3@15/4/2015,999471145 
0,-1,-1,0,-2,1,0,-4,-2,21:53:3@15/4/2015,999471146 
0,-1,-1,0,-2,1,0,-4,-2,21:53:3@15/4/2015,999471147 
0,-1,-1,0,-2,1,0,-4,-2,21:53:3@15/4/2015,999471148 
0,-1,-1,0,-2,1,0,-4,-2,21:53:3@15/4/2015,999471149 
0,-1,-1,0,-2,1,0,-4,-2,21:53:3@15/4/2015,999471150 
0,-1,-1,0,-2,1,0,-4,-2,21:53:3@15/4/2015,999471151 
0,-2,-2,-6,-4,-5,-1,0,1,21:53:3@15/4/2015,999471152 
0,-2,-2,-6,-4,-5,-1,0,1,21:53:3@15/4/2015,999471153 
0,-2,-2,-6,-4,-5,-1,0,1,21:53:3@15/4/2015,999471154 
0,-2,-2,-6,-4,-5,-1,0,1,21:53:3@15/4/2015,999471155 
0,-2,-2,-6,-4,-5,-1,0,1,21:53:3@15/4/2015,999471156 
0,-2,-2,-6,-4,-5,-1,0,1,21:53:3@15/4/2015,999471157 
0,-2,-2,-6,-4,-5,-1,0,1,21:53:3@15/4/2015,999471158 
0,-3,-3,3,26,7,0,-1,0,21:53:3@15/4/2015,999471159 
0,-3,-3,3,26,7,0,-1,0,21:53:3@15/4/2015,999471160 
0,-3,-3,3,26,7,0,-1,0,21:53:3@15/4/2015,999471161 
0,-3,-3,3,26,7,0,-1,0,21:53:3@15/4/2015,999471162 
0,-3,-3,3,26,7,0,-1,0,21:53:3@15/4/2015,999471163 
0,-3,-3,3,26,7,0,-1,0,21:53:3@15/4/2015,999471164 
0,-3,-3,3,26,7,0,-1,0,21:53:3@15/4/2015,999471165 
0,-3,-3,3,26,7,0,-1,0,21:53:3@15/4/2015,999471166 
0,-3,-3,3,26,7,0,-1,0,21:53:3@15/4/2015,999471167 
0,-3,-3,3,26,7,0,-1,0,21:53:3@15/4/2015,999471168 
0,-3,-3,3,26,7,0,-1,0,21:53:3@15/4/2015,999471169 
0,-3,-3,3,26,7,0,-1,0,21:53:3@15/4/2015,999471170 
0,-3,-3,3,26,7,0,-1,0,21:53:3@15/4/2015,999471171 
0,-3,-3,3,26,7,0,-1,0,21:53:3@15/4/2015,999471172 
0,-3,-3,3,26,7,0,-1,0,21:53:3@15/4/2015,999471173 
0,1,6,0,-7,-1,-1,-3,0,21:53:3@15/4/2015,999471174 
0,1,6,0,-7,-1,-1,-3,0,21:53:3@15/4/2015,999471175 
0,1,6,0,-7,-1,-1,-3,0,21:53:3@15/4/2015,999471176 
0,1,6,0,-7,-1,-1,-3,0,21:53:3@15/4/2015,999471177 
0,1,6,0,-7,-1,-1,-3,0,21:53:3@15/4/2015,999471178 
0,1,6,0,-7,-1,-1,-3,0,21:53:3@15/4/2015,999471179 
0,1,6,0,-7,-1,-1,-3,0,21:53:3@15/4/2015,999471180 
0,1,6,0,-7,-1,-1,-3,0,21:53:3@15/4/2015,999471181 
0,-2,-2,-2,11,0,-2,-2,-2,21:53:3@15/4/2015,999471182 
0,-2,-2,-2,11,0,-2,-2,-2,21:53:3@15/4/2015,999471183 
0,-2,-2,-2,11,0,-2,-2,-2,21:53:3@15/4/2015,999471184 
0,-2,-2,-2,11,0,-2,-2,-2,21:53:3@15/4/2015,999471185 
0,-2,-2,-2,11,0,-2,-2,-2,21:53:3@15/4/2015,999471186 
0,-2,-2,-2,11,0,-2,-2,-2,21:53:3@15/4/2015,999471187 
0,-2,-2,-2,11,0,-2,-2,-2,21:53:3@15/4/2015,999471188 
0,0,1,8,15,1,-1,-1,-3,21:53:3@15/4/2015,999471189 
0,0,1,8,15,1,-1,-1,-3,21:53:3@15/4/2015,999471190 
0,0,1,8,15,1,-1,-1,-3,21:53:3@15/4/2015,999471191 
0,0,1,8,15,1,-1,-1,-3,21:53:3@15/4/2015,999471192 
0,0,1,8,15,1,-1,-1,-3,21:53:3@15/4/2015,999471193 
0,0,1,8,15,1,-1,-1,-3,21:53:3@15/4/2015,999471194 
0,0,1,8,15,1,-1,-1,-3,21:53:3@15/4/2015,999471195 
0,0,1,8,15,1,-1,-1,-3,21:53:3@15/4/2015,999471196 
0,0,1,8,15,1,-1,-1,-3,21:53:3@15/4/2015,999471197 
0,0,1,8,15,1,-1,-1,-3,21:53:3@15/4/2015,999471198 
0,0,1,8,15,1,-1,-1,-3,21:53:3@15/4/2015,999471199 
0,0,1,8,15,1,-1,-1,-3,21:53:3@15/4/2015,999471200 
0,0,1,8,15,1,-1,-1,-3,21:53:3@15/4/2015,999471201 
0,0,1,8,15,1,-1,-1,-3,21:53:3@15/4/2015,999471202 
0,0,1,8,15,1,-1,-1,-3,21:53:3@15/4/2015,999471203 
0,0,1,8,15,1,-1,-1,-3,21:53:3@15/4/2015,999471204 
0,1,-3,-8,-6,-1,-2,-2,0,21:53:3@15/4/2015,999471205 
0,1,-3,-8,-6,-1,-2,-2,0,21:53:3@15/4/2015,999471206 
0,1,-3,-8,-6,-1,-2,-2,0,21:53:3@15/4/2015,999471207 
0,1,-3,-8,-6,-1,-2,-2,0,21:53:3@15/4/2015,999471208 
0,1,-3,-8,-6,-1,-2,-2,0,21:53:3@15/4/2015,999471209 
0,1,-3,-8,-6,-1,-2,-2,0,21:53:3@15/4/2015,999471210 
0,-3,-1,-3,-5,-1,0,0,0,21:53:3@15/4/2015,999471211 
0,-2,0,-4,-17,-6,-2,-2,-1,21:53:3@15/4/2015,999471212 
0,-2,0,-4,-17,-6,-2,-2,-1,21:53:3@15/4/2015,999471213 
0,-2,0,-4,-17,-6,-2,-2,-1,21:53:3@15/4/2015,999471214 
0,-2,0,-4,-17,-6,-2,-2,-1,21:53:3@15/4/2015,999471215 
0,-2,0,-4,-17,-6,-2,-2,-1,21:53:3@15/4/2015,999471216 
0,-2,0,-4,-17,-6,-2,-2,-1,21:53:3@15/4/2015,999471217 
0,-2,0,-4,-17,-6,-2,-2,-1,21:53:3@15/4/2015,999471218 
0,-2,0,1,5,-1,-2,0,-2,21:53:3@15/4/2015,999471219 
0,-2,0,1,5,-1,-2,0,-2,21:53:3@15/4/2015,999471220 
0,-2,0,1,5,-1,-2,0,-2,21:53:3@15/4/2015,999471221 
0,-2,0,1,5,-1,-2,0,-2,21:53:3@15/4/2015,999471222 
0,-2,0,1,5,-1,-2,0,-2,21:53:3@15/4/2015,999471223 
0,-2,0,1,5,-1,-2,0,-2,21:53:3@15/4/2015,999471224 
0,-2,0,1,5,-1,-2,0,-2,21:53:3@15/4/2015,999471225 
0,-2,0,1,5,-1,-2,0,-2,21:53:3@15/4/2015,999471226 
0,-2,0,1,5,-1,-2,0,-2,21:53:3@15/4/2015,999471227 
0,-2,0,1,5,-1,-2,0,-2,21:53:3@15/4/2015,999471228 
0,-2,0,1,5,-1,-2,0,-2,21:53:3@15/4/2015,999471229 
0,-2,0,1,5,-1,-2,0,-2,21:53:3@15/4/2015,999471230 
0,-2,0,1,5,-1,-2,0,-2,21:53:3@15/4/2015,999471231 
0,-2,0,1,5,-1,-2,0,-2,21:53:3@15/4/2015,999471232 
0,-2,0,1,5,-1,-2,0,-2,21:53:3@15/4/2015,999471233 
0,-4,-8,-6,-9,-2,0,-2,-2,21:53:3@15/4/2015,999471234 
0,-4,-8,-6,-9,-2,0,-2,-2,21:53:3@15/4/2015,999471235 
0,-4,-8,-6,-9,-2,0,-2,-2,21:53:3@15/4/2015,999471236 
0,-4,-8,-6,-9,-2,0,-2,-2,21:53:3@15/4/2015,999471237 
0,-4,-8,-6,-9,-2,0,-2,-2,21:53:3@15/4/2015,999471238 
0,-4,-8,-6,-9,-2,0,-2,-2,21:53:3@15/4/2015,999471239 
0,-4,-8,-6,-9,-2,0,-2,-2,21:53:3@15/4/2015,999471240 
0,-4,-8,-6,-9,-2,0,-2,-2,21:53:3@15/4/2015,999471241 
0,1,-1,3,-4,0,0,-1,-1,21:53:3@15/4/2015,999471242 
0,1,-1,3,-4,0,0,-1,-1,21:53:3@15/4/2015,999471243 
0,1,-1,3,-4,0,0,-1,-1,21:53:3@15/4/2015,999471244 
0,1,-1,3,-4,0,0,-1,-1,21:53:3@15/4/2015,999471245 
0,1,-1,3,-4,0,0,-1,-1,21:53:3@15/4/2015,999471246 
0,1,-1,3,-4,0,0,-1,-1,21:53:3@15/4/2015,999471247 
0,1,-1,3,-4,0,0,-1,-1,21:53:3@15/4/2015,999471248 
0,1,1,-1,-1,1,-2,-2,0,21:53:3@15/4/2015,999471249 
0,1,1,-1,-1,1,-2,-2,0,21:53:3@15/4/2015,999471250 
0,1,1,-1,-1,1,-2,-2,0,21:53:3@15/4/2015,999471251 
0,1,1,-1,-1,1,-2,-2,0,21:53:3@15/4/2015,999471252 
0,1,1,-1,-1,1,-2,-2,0,21:53:3@15/4/2015,999471253 
0,1,1,-1,-1,1,-2,-2,0,21:53:3@15/4/2015,999471254 
0,1,1,-1,-1,1,-2,-2,0,21:53:3@15/4/2015,999471255 
0,1,1,-1,-1,1,-2,-2,0,21:53:3@15/4/2015,999471256 
0,1,1,-1,-1,1,-2,-2,0,21:53:3@15/4/2015,999471257 
0,1,1,-1,-1,1,-2,-2,0,21:53:3@15/4/2015,999471258 
0,1,1,-1,-1,1,-2,-2,0,21:53:3@15/4/2015,999471259 
0,1,1,-1,-1,1,-2,-2,0,21:53:3@15/4/2015,999471260 
0,1,1,-1,-1,1,-2,-2,0,21:53:3@15/4/2015,999471261 
0,1,1,-1,-1,1,-2,-2,0,21:53:3@15/4/2015,999471262 
0,1,1,-1,-1,1,-2,-2,0,21:53:3@15/4/2015,999471263 
0,1,1,-1,-1,1,-2,-2,0,21:53:3@15/4/2015,999471264 
0,0,0,-1,-6,-4,-1,-1,-1,21:53:3@15/4/2015,999471265 
0,0,0,-1,-6,-4,-1,-1,-1,21:53:3@15/4/2015,999471266 
0,0,0,-1,-6,-4,-1,-1,-1,21:53:3@15/4/2015,999471267 
0,0,0,-1,-6,-4,-1,-1,-1,21:53:3@15/4/2015,999471268 
0,0,0,-1,-6,-4,-1,-1,-1,21:53:3@15/4/2015,999471269 
0,0,0,-1,-6,-4,-1,-1,-1,21:53:3@15/4/2015,999471270 
0,0,0,-1,-6,-4,-1,-1,-1,21:53:3@15/4/2015,999471271 
0,1,0,-3,-4,-2,1,-1,0,21:53:3@15/4/2015,999471272 
0,1,0,-3,-4,-2,1,-1,0,21:53:3@15/4/2015,999471273 
0,1,0,-3,-4,-2,1,-1,0,21:53:3@15/4/2015,999471274 
0,1,0,-3,-4,-2,1,-1,0,21:53:3@15/4/2015,999471275 
0,1,0,-3,-4,-2,1,-1,0,21:53:3@15/4/2015,999471276 
0,1,0,-3,-4,-2,1,-1,0,21:53:3@15/4/2015,999471277 
0,1,0,-3,-4,-2,1,-1,0,21:53:3@15/4/2015,999471278 
0,-4,-1,2,-1,-1,-1,-4,-1,21:53:3@15/4/2015,999471279 
0,-4,-1,2,-1,-1,-1,-4,-1,21:53:3@15/4/2015,999471280 
0,-4,-1,2,-1,-1,-1,-4,-1,21:53:3@15/4/2015,999471281 
0,-4,-1,2,-1,-1,-1,-4,-1,21:53:3@15/4/2015,999471282 
0,-4,-1,2,-1,-1,-1,-4,-1,21:53:3@15/4/2015,999471283 
0,-4,-1,2,-1,-1,-1,-4,-1,21:53:3@15/4/2015,999471284 
0,-4,-1,2,-1,-1,-1,-4,-1,21:53:3@15/4/2015,999471285 
0,-4,-1,2,-1,-1,-1,-4,-1,21:53:3@15/4/2015,999471286 
0,-4,-1,2,-1,-1,-1,-4,-1,21:53:3@15/4/2015,999471287 
0,-4,-1,2,-1,-1,-1,-4,-1,21:53:3@15/4/2015,999471288 
0,-4,-1,2,-1,-1,-1,-4,-1,21:53:3@15/4/2015,999471289 
0,-4,-1,2,-1,-1,-1,-4,-1,21:53:3@15/4/2015,999471290 
0,-4,-1,2,-1,-1,-1,-4,-1,21:53:3@15/4/2015,999471291 
0,-4,-1,2,-1,-1,-1,-4,-1,21:53:3@15/4/2015,999471292 
0,-4,-1,2,-1,-1,-1,-4,-1,21:53:3@15/4/2015,999471293 
0,-2,-1,3,-7,-3,-1,-1,-3,21:53:3@15/4/2015,999471294 
0,-2,-1,3,-7,-3,-1,-1,-3,21:53:3@15/4/2015,999471295 
0,-2,-1,3,-7,-3,-1,-1,-3,21:53:3@15/4/2015,999471296 
0,-2,-1,3,-7,-3,-1,-1,-3,21:53:3@15/4/2015,999471297 
0,-2,-1,3,-7,-3,-1,-1,-3,21:53:3@15/4/2015,999471298 
0,-2,-1,3,-7,-3,-1,-1,-3,21:53:3@15/4/2015,999471299 
0,-2,-1,3,-7,-3,-1,-1,-3,21:53:3@15/4/2015,999471300 
0,-2,-1,3,-7,-3,-1,-1,-3,21:53:3@15/4/2015,999471301 
0,2,1,0,7,5,0,-1,0,21:53:3@15/4/2015,999471302 
0,2,1,0,7,5,0,-1,0,21:53:3@15/4/2015,999471303 
0,2,1,0,7,5,0,-1,0,21:53:3@15/4/2015,999471304 
0,2,1,0,7,5,0,-1,0,21:53:3@15/4/2015,999471305 
0,2,1,0,7,5,0,-1,0,21:53:3@15/4/2015,999471306 
0,2,1,0,7,5,0,-1,0,21:53:3@15/4/2015,999471307 
0,2,1,0,7,5,0,-1,0,21:53:3@15/4/2015,999471308 
0,-1,-2,-1,4,2,0,-1,-2,21:53:3@15/4/2015,999471309 
0,-1,-2,-1,4,2,0,-1,-2,21:53:3@15/4/2015,999471310 
0,-1,-2,-1,4,2,0,-1,-2,21:53:3@15/4/2015,999471311 
0,-1,-2,-1,4,2,0,-1,-2,21:53:3@15/4/2015,999471312 
0,-1,-2,-1,4,2,0,-1,-2,21:53:3@15/4/2015,999471313 
0,-1,-2,-1,4,2,0,-1,-2,21:53:3@15/4/2015,999471314 
0,-1,-2,-1,4,2,0,-1,-2,21:53:3@15/4/2015,999471315 
0,-1,-2,-1,4,2,0,-1,-2,21:53:3@15/4/2015,999471316 
0,-1,-2,-1,4,2,0,-1,-2,21:53:3@15/4/2015,999471317 
0,-1,-2,-1,4,2,0,-1,-2,21:53:3@15/4/2015,999471318 
0,-1,-2,-1,4,2,0,-1,-2,21:53:3@15/4/2015,999471319 
0,-1,-2,-1,4,2,0,-1,-2,21:53:3@15/4/2015,999471320 
0,-1,-2,-1,4,2,0,-1,-2,21:53:3@15/4/2015,999471321 
0,-1,-2,-1,4,2,0,-1,-2,21:53:3@15/4/2015,999471322 
0,-1,-2,-1,4,2,0,-1,-2,21:53:3@15/4/2015,999471323 
0,-1,-2,-1,4,2,0,-1,-2,21:53:3@15/4/2015,999471324 
0,0,0,-2,-6,-4,-3,-1,0,21:53:3@15/4/2015,999471325 
0,0,0,-2,-6,-4,-3,-1,0,21:53:3@15/4/2015,999471326 
0,0,0,-2,-6,-4,-3,-1,0,21:53:3@15/4/2015,999471327 
0,0,0,-2,-6,-4,-3,-1,0,21:53:3@15/4/2015,999471328 
0,0,0,-2,-6,-4,-3,-1,0,21:53:3@15/4/2015,999471329 
0,0,0,-2,-6,-4,-3,-1,0,21:53:3@15/4/2015,999471330 
0,0,0,-2,-6,-4,-3,-1,0,21:53:3@15/4/2015,999471331 
0,-2,-1,-2,-9,-4,-2,-1,-1,21:53:3@15/4/2015,999471332 
0,-2,-1,-2,-9,-4,-2,-1,-1,21:53:3@15/4/2015,999471333 
0,-2,-1,-2,-9,-4,-2,-1,-1,21:53:3@15/4/2015,999471334 
0,-2,-1,-2,-9,-4,-2,-1,-1,21:53:3@15/4/2015,999471335 
0,-2,-1,-2,-9,-4,-2,-1,-1,21:53:3@15/4/2015,999471336 
0,-2,-1,-2,-9,-4,-2,-1,-1,21:53:3@15/4/2015,999471337 
0,-2,-1,-2,-9,-4,-2,-1,-1,21:53:3@15/4/2015,999471338 
0,-5,-3,4,5,-1,0,-2,-4,21:53:3@15/4/2015,999471339 
0,-5,-3,4,5,-1,0,-2,-4,21:53:3@15/4/2015,999471340 
0,-5,-3,4,5,-1,0,-2,-4,21:53:3@15/4/2015,999471341 
0,-5,-3,4,5,-1,0,-2,-4,21:53:3@15/4/2015,999471342 
0,-5,-3,4,5,-1,0,-2,-4,21:53:3@15/4/2015,999471343 
0,-5,-3,4,5,-1,0,-2,-4,21:53:3@15/4/2015,999471344 
0,-5,-3,4,5,-1,0,-2,-4,21:53:3@15/4/2015,999471345 
0,-5,-3,4,5,-1,0,-2,-4,21:53:3@15/4/2015,999471346 
0,-5,-3,4,5,-1,0,-2,-4,21:53:3@15/4/2015,999471347 
0,-5,-3,4,5,-1,0,-2,-4,21:53:3@15/4/2015,999471348 
0,-5,-3,4,5,-1,0,-2,-4,21:53:3@15/4/2015,999471349 
0,-5,-3,4,5,-1,0,-2,-4,21:53:3@15/4/2015,999471350 
0,-5,-3,4,5,-1,0,-2,-4,21:53:3@15/4/2015,999471351 
0,-5,-3,4,5,-1,0,-2,-4,21:53:3@15/4/2015,999471352 
0,-5,-3,4,5,-1,0,-2,-4,21:53:3@15/4/2015,999471353 
0,-3,-3,-4,-1,-3,-3,-2,-1,21:53:3@15/4/2015,999471354 
0,-3,-3,-4,-1,-3,-3,-2,-1,21:53:3@15/4/2015,999471355 
0,-3,-3,-4,-1,-3,-3,-2,-1,21:53:3@15/4/2015,999471356 
0,-3,-3,-4,-1,-3,-3,-2,-1,21:53:3@15/4/2015,999471357 
0,-3,-3,-4,-1,-3,-3,-2,-1,21:53:3@15/4/2015,999471358 
0,-3,-3,-4,-1,-3,-3,-2,-1,21:53:3@15/4/2015,999471359 
0,-3,-3,-4,-1,-3,-3,-2,-1,21:53:3@15/4/2015,999471360 
0,-3,-3,-4,-1,-3,-3,-2,-1,21:53:3@15/4/2015,999471361 
0,0,1,1,5,0,2,-1,0,21:53:3@15/4/2015,999471362 
0,0,1,1,5,0,2,-1,0,21:53:3@15/4/2015,999471363 
0,0,1,1,5,0,2,-1,0,21:53:3@15/4/2015,999471364 
0,0,1,1,5,0,2,-1,0,21:53:3@15/4/2015,999471365 
0,0,1,1,5,0,2,-1,0,21:53:3@15/4/2015,999471366 
0,0,1,1,5,0,2,-1,0,21:53:3@15/4/2015,999471367 
0,0,1,1,5,0,2,-1,0,21:53:3@15/4/2015,999471368 
0,1,3,0,-6,-3,0,0,0,21:53:3@15/4/2015,999471369 
0,1,3,0,-6,-3,0,0,0,21:53:3@15/4/2015,999471370 
0,1,3,0,-6,-3,0,0,0,21:53:3@15/4/2015,999471371 
0,1,3,0,-6,-3,0,0,0,21:53:3@15/4/2015,999471372 
0,1,3,0,-6,-3,0,0,0,21:53:3@15/4/2015,999471373 
0,1,3,0,-6,-3,0,0,0,21:53:3@15/4/2015,999471374 
0,1,3,0,-6,-3,0,0,0,21:53:3@15/4/2015,999471375 
0,1,3,0,-6,-3,0,0,0,21:53:3@15/4/2015,999471376 
0,1,3,0,-6,-3,0,0,0,21:53:3@15/4/2015,999471377 
0,1,3,0,-6,-3,0,0,0,21:53:3@15/4/2015,999471378 
0,1,3,0,-6,-3,0,0,0,21:53:3@15/4/2015,999471379 
0,1,3,0,-6,-3,0,0,0,21:53:3@15/4/2015,999471380 
0,1,3,0,-6,-3,0,0,0,21:53:3@15/4/2015,999471381 
0,1,3,0,-6,-3,0,0,0,21:53:3@15/4/2015,999471382 
0,1,3,0,-6,-3,0,0,0,21:53:3@15/4/2015,999471383 
0,1,3,0,-6,-3,0,0,0,21:53:3@15/4/2015,999471384 
0,0,-1,4,11,0,-2,-1,0,21:53:3@15/4/2015,999471385 
0,0,-1,4,11,0,-2,-1,0,21:53:3@15/4/2015,999471386 
0,0,-1,4,11,0,-2,-1,0,21:53:3@15/4/2015,999471387 
0,0,-1,4,11,0,-2,-1,0,21:53:3@15/4/2015,999471388 
0,0,-1,4,11,0,-2,-1,0,21:53:3@15/4/2015,999471389 
0,0,-1,4,11,0,-2,-1,0,21:53:3@15/4/2015,999471390 
0,0,-1,4,11,0,-2,-1,0,21:53:3@15/4/2015,999471391 
0,1,0,-1,2,-4,-1,0,0,21:53:3@15/4/2015,999471392 
0,1,0,-1,2,-4,-1,0,0,21:53:3@15/4/2015,999471393 
0,1,0,-1,2,-4,-1,0,0,21:53:3@15/4/2015,999471394 
0,1,0,-1,2,-4,-1,0,0,21:53:3@15/4/2015,999471395 
0,1,0,-1,2,-4,-1,0,0,21:53:3@15/4/2015,999471396 
0,1,0,-1,2,-4,-1,0,0,21:53:3@15/4/2015,999471397 
0,1,0,-1,2,-4,-1,0,0,21:53:3@15/4/2015,999471398 
0,1,0,-1,2,-4,-1,0,0,21:53:3@15/4/2015,999471399 
0,1,0,-1,2,-4,-1,0,0,21:53:3@15/4/2015,999471400 
0,1,0,-1,2,-4,-1,0,0,21:53:3@15/4/2015,999471401 
0,1,0,-1,2,-4,-1,0,0,21:53:3@15/4/2015,999471402 
0,1,0,-1,2,-4,-1,0,0,21:53:3@15/4/2015,999471403 
0,1,0,-1,2,-4,-1,0,0,21:53:3@15/4/2015,999471404 
0,1,0,-1,2,-4,-1,0,0,21:53:3@15/4/2015,999471405 
0,1,0,-1,2,-4,-1,0,0,21:53:3@15/4/2015,999471406 
0,-3,-3,0,-16,-14,-2,1,-2,21:53:3@15/4/2015,999471407 
0,-3,-3,0,-16,-14,-2,1,-2,21:53:3@15/4/2015,999471408 
0,-3,-3,0,-16,-14,-2,1,-2,21:53:3@15/4/2015,999471409 
0,-3,-3,0,-16,-14,-2,1,-2,21:53:3@15/4/2015,999471410 
0,-3,-3,0,-16,-14,-2,1,-2,21:53:3@15/4/2015,999471411 
0,-3,-3,0,-16,-14,-2,1,-2,21:53:3@15/4/2015,999471412 
0,-3,-3,0,-16,-14,-2,1,-2,21:53:3@15/4/2015,999471413 
0,-3,-2,1,3,-2,1,-1,-3,21:53:3@15/4/2015,999471414 
0,-3,-2,1,3,-2,1,-1,-3,21:53:3@15/4/2015,999471415 
0,-3,-2,1,3,-2,1,-1,-3,21:53:3@15/4/2015,999471416 
0,-3,-2,1,3,-2,1,-1,-3,21:53:3@15/4/2015,999471417 
0,-3,-2,1,3,-2,1,-1,-3,21:53:3@15/4/2015,999471418 
0,-3,-2,1,3,-2,1,-1,-3,21:53:3@15/4/2015,999471419 
0,-3,-2,1,3,-2,1,-1,-3,21:53:3@15/4/2015,999471420 
0,-3,-2,1,3,-2,1,-1,-3,21:53:3@15/4/2015,999471421 
0,-3,-2,1,3,-2,1,-1,-3,21:53:3@15/4/2015,999471422 
0,1,-2,-7,-14,-3,-1,-1,0,21:53:3@15/4/2015,999471423 
0,1,-2,-7,-14,-3,-1,-1,0,21:53:3@15/4/2015,999471424 
0,1,-2,-7,-14,-3,-1,-1,0,21:53:3@15/4/2015,999471425 
0,1,-2,-7,-14,-3,-1,-1,0,21:53:3@15/4/2015,999471426 
0,1,-2,-7,-14,-3,-1,-1,0,21:53:3@15/4/2015,999471427 
0,1,-2,-7,-14,-3,-1,-1,0,21:53:3@15/4/2015,999471428 
0,-6,-7,-7,-11,-5,-4,-3,-3,21:53:3@15/4/2015,999471429 
0,-6,-7,-7,-11,-5,-4,-3,-3,21:53:3@15/4/2015,999471430 
0,-6,-7,-7,-11,-5,-4,-3,-3,21:53:3@15/4/2015,999471431 
0,-6,-7,-7,-11,-5,-4,-3,-3,21:53:3@15/4/2015,999471432 
0,-6,-7,-7,-11,-5,-4,-3,-3,21:53:3@15/4/2015,999471433 
0,-6,-7,-7,-11,-5,-4,-3,-3,21:53:3@15/4/2015,999471434 
0,-6,-7,-7,-11,-5,-4,-3,-3,21:53:3@15/4/2015,999471435 
0,-6,-7,-7,-11,-5,-4,-3,-3,21:53:3@15/4/2015,999471436 
0,-6,-7,-7,-11,-5,-4,-3,-3,21:53:3@15/4/2015,999471437 
0,-6,-7,-7,-11,-5,-4,-3,-3,21:53:3@15/4/2015,999471438 
0,-6,-7,-7,-11,-5,-4,-3,-3,21:53:3@15/4/2015,999471439 
0,-6,-7,-7,-11,-5,-4,-3,-3,21:53:3@15/4/2015,999471440 
0,-6,-7,-7,-11,-5,-4,-3,-3,21:53:3@15/4/2015,999471441 
0,-6,-7,-7,-11,-5,-4,-3,-3,21:53:3@15/4/2015,999471442 
0,-6,-7,-7,-11,-5,-4,-3,-3,21:53:3@15/4/2015,999471443 
0,-6,-7,-7,-11,-5,-4,-3,-3,21:53:3@15/4/2015,999471444 
0,-6,-7,-7,-11,-5,-4,-3,-3,21:53:3@15/4/2015,999471445 
0,1,-1,-13,-34,-11,-1,-2,-1,21:53:3@15/4/2015,999471446 
0,1,-1,-13,-34,-11,-1,-2,-1,21:53:3@15/4/2015,999471447 
0,1,-1,-13,-34,-11,-1,-2,-1,21:53:3@15/4/2015,999471448 
0,1,-1,-13,-34,-11,-1,-2,-1,21:53:3@15/4/2015,999471449 
0,1,-1,-13,-34,-11,-1,-2,-1,21:53:3@15/4/2015,999471450 
0,1,-1,-13,-34,-11,-1,-2,-1,21:53:3@15/4/2015,999471451 
0,2,2,5,33,7,0,1,0,21:53:3@15/4/2015,999471452 
0,2,2,5,33,7,0,1,0,21:53:3@15/4/2015,999471453 
0,2,2,5,33,7,0,1,0,21:53:3@15/4/2015,999471454 
0,2,2,5,33,7,0,1,0,21:53:3@15/4/2015,999471455 
0,2,2,5,33,7,0,1,0,21:53:3@15/4/2015,999471456 
0,2,2,5,33,7,0,1,0,21:53:3@15/4/2015,999471457 
0,2,2,5,33,7,0,1,0,21:53:3@15/4/2015,999471458 
0,2,2,5,33,7,0,1,0,21:53:3@15/4/2015,999471459 
0,2,2,5,33,7,0,1,0,21:53:3@15/4/2015,999471460 
0,2,2,5,33,7,0,1,0,21:53:3@15/4/2015,999471461 
0,2,2,5,33,7,0,1,0,21:53:3@15/4/2015,999471462 
0,2,2,5,33,7,0,1,0,21:53:3@15/4/2015,999471463 
0,2,2,5,33,7,0,1,0,21:53:3@15/4/2015,999471464 
0,2,2,5,33,7,0,1,0,21:53:3@15/4/2015,999471465 
0,2,2,5,33,7,0,1,0,21:53:3@15/4/2015,999471466 
0,2,2,5,33,7,0,1,0,21:53:3@15/4/2015,999471467 
0,-2,-6,-15,0,4,0,1,-2,21:53:3@15/4/2015,999471468 
0,-2,-6,-15,0,4,0,1,-2,21:53:3@15/4/2015,999471469 
0,-2,-6,-15,0,4,0,1,-2,21:53:3@15/4/2015,999471470 
0,-2,-6,-15,0,4,0,1,-2,21:53:3@15/4/2015,999471471 
0,-2,-6,-15,0,4,0,1,-2,21:53:3@15/4/2015,999471472 
0,-2,-6,-15,0,4,0,1,-2,21:53:3@15/4/2015,999471473 
0,8,13,10,-2,4,6,0,2,21:53:3@15/4/2015,999471474 
0,8,13,10,-2,4,6,0,2,21:53:3@15/4/2015,999471475 
0,8,13,10,-2,4,6,0,2,21:53:3@15/4/2015,999471476 
0,8,13,10,-2,4,6,0,2,21:53:3@15/4/2015,999471477 
0,8,13,10,-2,4,6,0,2,21:53:3@15/4/2015,999471478 
0,8,13,10,-2,4,6,0,2,21:53:3@15/4/2015,999471479 
0,8,13,10,-2,4,6,0,2,21:53:3@15/4/2015,999471480 
0,8,13,10,-2,4,6,0,2,21:53:3@15/4/2015,999471481 
0,8,13,10,-2,4,6,0,2,21:53:3@15/4/2015,999471482 
0,-5,-2,-15,-2,-5,-2,-2,-3,21:53:3@15/4/2015,999471483 
0,-5,-2,-15,-2,-5,-2,-2,-3,21:53:3@15/4/2015,999471484 
0,-5,-2,-15,-2,-5,-2,-2,-3,21:53:3@15/4/2015,999471485 
0,-5,-2,-15,-2,-5,-2,-2,-3,21:53:3@15/4/2015,999471486 
0,-5,-2,-15,-2,-5,-2,-2,-3,21:53:3@15/4/2015,999471487 
0,-5,-2,-15,-2,-5,-2,-2,-3,21:53:3@15/4/2015,999471488 
0,-5,-2,-15,-2,-5,-2,-2,-3,21:53:3@15/4/2015,999471489 
0,-5,-2,-15,-2,-5,-2,-2,-3,21:53:3@15/4/2015,999471490 
0,-5,-2,-15,-2,-5,-2,-2,-3,21:53:3@15/4/2015,999471491 
0,-5,-2,-15,-2,-5,-2,-2,-3,21:53:3@15/4/2015,999471492 
0,-5,-2,-15,-2,-5,-2,-2,-3,21:53:3@15/4/2015,999471493 
0,-5,-2,-15,-2,-5,-2,-2,-3,21:53:3@15/4/2015,999471494 
0,-5,-2,-15,-2,-5,-2,-2,-3,21:53:3@15/4/2015,999471495 
0,2,5,12,6,11,1,3,2,21:53:3@15/4/2015,999471496 
0,2,5,12,6,11,1,3,2,21:53:3@15/4/2015,999471497 
0,2,5,12,6,11,1,3,2,21:53:3@15/4/2015,999471498 
0,2,5,12,6,11,1,3,2,21:53:3@15/4/2015,999471499 
0,2,5,12,6,11,1,3,2,21:53:3@15/4/2015,999471500 
0,2,5,12,6,11,1,3,2,21:53:3@15/4/2015,999471501 
0,2,5,12,6,11,1,3,2,21:53:3@15/4/2015,999471502 
0,2,5,12,6,11,1,3,2,21:53:3@15/4/2015,999471503 
0,2,5,12,6,11,1,3,2,21:53:3@15/4/2015,999471504 
0,2,5,12,6,11,1,3,2,21:53:3@15/4/2015,999471505 
0,-2,-1,0,-31,4,-3,0,0,21:53:3@15/4/2015,999471506 
0,-2,-1,0,-31,4,-3,0,0,21:53:3@15/4/2015,999471507 
0,-2,-1,0,-31,4,-3,0,0,21:53:3@15/4/2015,999471508 
0,-2,-1,0,-31,4,-3,0,0,21:53:3@15/4/2015,999471509 
0,-2,-1,0,-31,4,-3,0,0,21:53:3@15/4/2015,999471510 
0,-2,-1,0,-31,4,-3,0,0,21:53:3@15/4/2015,999471511 
0,-6,-8,-7,-37,-3,-2,-4,-2,21:53:3@15/4/2015,999471512 
0,-6,-8,-7,-37,-3,-2,-4,-2,21:53:3@15/4/2015,999471513 
0,-6,-8,-7,-37,-3,-2,-4,-2,21:53:3@15/4/2015,999471514 
0,-6,-8,-7,-37,-3,-2,-4,-2,21:53:3@15/4/2015,999471515 
0,-6,-8,-7,-37,-3,-2,-4,-2,21:53:3@15/4/2015,999471516 
0,-6,-8,-7,-37,-3,-2,-4,-2,21:53:3@15/4/2015,999471517 
0,-6,-8,-7,-37,-3,-2,-4,-2,21:53:3@15/4/2015,999471518 
0,-6,-8,-7,-37,-3,-2,-4,-2,21:53:3@15/4/2015,999471519 
0,-6,-8,-7,-37,-3,-2,-4,-2,21:53:3@15/4/2015,999471520 
0,-6,-8,-7,-37,-3,-2,-4,-2,21:53:3@15/4/2015,999471521 
0,-6,-8,-7,-37,-3,-2,-4,-2,21:53:3@15/4/2015,999471522 
0,-6,-8,-7,-37,-3,-2,-4,-2,21:53:3@15/4/2015,999471523 
0,-6,-8,-7,-37,-3,-2,-4,-2,21:53:3@15/4/2015,999471524 
0,-6,-8,-7,-37,-3,-2,-4,-2,21:53:3@15/4/2015,999471525 
0,-6,-8,-7,-37,-3,-2,-4,-2,21:53:3@15/4/2015,999471526 
0,-6,-8,-7,-37,-3,-2,-4,-2,21:53:3@15/4/2015,999471527 
0,3,0,-13,57,-5,-1,1,2,21:53:3@15/4/2015,999471528 
0,3,0,-13,57,-5,-1,1,2,21:53:3@15/4/2015,999471529 
0,3,0,-13,57,-5,-1,1,2,21:53:3@15/4/2015,999471530 
0,3,0,-13,57,-5,-1,1,2,21:53:3@15/4/2015,999471531 
0,3,0,-13,57,-5,-1,1,2,21:53:3@15/4/2015,999471532 
0,3,0,-13,57,-5,-1,1,2,21:53:3@15/4/2015,999471533 
0,-6,-7,-2,-13,-60,-18,-9,-5,21:53:3@15/4/2015,999471534 
0,-6,-7,-2,-13,-60,-18,-9,-5,21:53:3@15/4/2015,999471535 
0,-6,-7,-2,-13,-60,-18,-9,-5,21:53:3@15/4/2015,999471536 
0,-6,-7,-2,-13,-60,-18,-9,-5,21:53:3@15/4/2015,999471537 
0,-6,-7,-2,-13,-60,-18,-9,-5,21:53:3@15/4/2015,999471538 
0,-6,-7,-2,-13,-60,-18,-9,-5,21:53:3@15/4/2015,999471539 
0,-6,-7,-2,-13,-60,-18,-9,-5,21:53:3@15/4/2015,999471540 
0,-6,-7,-2,-13,-60,-18,-9,-5,21:53:3@15/4/2015,999471541 
0,-6,-7,-2,-13,-60,-18,-9,-5,21:53:3@15/4/2015,999471542 
0,-6,-7,-2,-13,-60,-18,-9,-5,21:53:3@15/4/2015,999471543 
0,-6,-7,-2,-13,-60,-18,-9,-5,21:53:3@15/4/2015,999471544 
0,-6,-7,-2,-13,-60,-18,-9,-5,21:53:3@15/4/2015,999471545 
0,-6,-7,-2,-13,-60,-18,-9,-5,21:53:3@15/4/2015,999471546 
0,-6,-7,-2,-13,-60,-18,-9,-5,21:53:3@15/4/2015,999471547 
0,-6,-7,-2,-13,-60,-18,-9,-5,21:53:3@15/4/2015,999471548 
0,2,-2,7,52,49,4,5,4,21:53:3@15/4/2015,999471549 
0,2,-2,7,52,49,4,5,4,21:53:3@15/4/2015,999471550 
0,2,-2,7,52,49,4,5,4,21:53:3@15/4/2015,999471551 
0,2,-2,7,52,49,4,5,4,21:53:3@15/4/2015,999471552 
0,2,-2,7,52,49,4,5,4,21:53:3@15/4/2015,999471553 
0,2,-2,7,52,49,4,5,4,21:53:3@15/4/2015,999471554 
0,2,-2,7,52,49,4,5,4,21:53:3@15/4/2015,999471555 
0,2,-2,7,52,49,4,5,4,21:53:3@15/4/2015,999471556 
0,-14,-27,-36,32,-28,-16,-8,-9,21:53:3@15/4/2015,999471557 
0,-14,-27,-36,32,-28,-16,-8,-9,21:53:3@15/4/2015,999471558 
0,-14,-27,-36,32,-28,-16,-8,-9,21:53:3@15/4/2015,999471559 
0,-14,-27,-36,32,-28,-16,-8,-9,21:53:3@15/4/2015,999471560 
0,-14,-27,-36,32,-28,-16,-8,-9,21:53:3@15/4/2015,999471561 
0,-14,-27,-36,32,-28,-16,-8,-9,21:53:3@15/4/2015,999471562 
0,-14,-27,-36,32,-28,-16,-8,-9,21:53:3@15/4/2015,999471563 
0,-14,-27,-36,32,-28,-16,-8,-9,21:53:3@15/4/2015,999471564 
0,8,10,-5,-127,19,5,2,1,21:53:3@15/4/2015,999471565 
0,8,10,-5,-127,19,5,2,1,21:53:3@15/4/2015,999471566 
0,8,10,-5,-127,19,5,2,1,21:53:3@15/4/2015,999471567 
0,8,10,-5,-127,19,5,2,1,21:53:3@15/4/2015,999471568 
0,8,10,-5,-127,19,5,2,1,21:53:3@15/4/2015,999471569 
0,8,10,-5,-127,19,5,2,1,21:53:3@15/4/2015,999471570 
0,8,10,-5,-127,19,5,2,1,21:53:3@15/4/2015,999471571 
0,7,13,18,41,90,19,6,4,21:53:3@15/4/2015,999471572 
0,7,13,18,41,90,19,6,4,21:53:3@15/4/2015,999471573 
0,7,13,18,41,90,19,6,4,21:53:3@15/4/2015,999471574 
0,7,13,18,41,90,19,6,4,21:53:3@15/4/2015,999471575 
0,7,13,18,41,90,19,6,4,21:53:3@15/4/2015,999471576 
0,7,13,18,41,90,19,6,4,21:53:3@15/4/2015,999471577 
0,7,13,18,41,90,19,6,4,21:53:3@15/4/2015,999471578 
0,7,13,18,41,90,19,6,4,21:53:3@15/4/2015,999471579 
0,7,13,18,41,90,19,6,4,21:53:3@15/4/2015,999471580 
0,7,13,18,41,90,19,6,4,21:53:3@15/4/2015,999471581 
0,7,13,18,41,90,19,6,4,21:53:3@15/4/2015,999471582 
0,7,13,18,41,90,19,6,4,21:53:3@15/4/2015,999471583 
0,7,13,18,41,90,19,6,4,21:53:3@15/4/2015,999471584 
0,7,13,18,41,90,19,6,4,21:53:3@15/4/2015,999471585 
0,7,13,18,41,90,19,6,4,21:53:3@15/4/2015,999471586 
0,7,13,18,41,90,19,6,4,21:53:3@15/4/2015,999471587 
0,-15,-20,-40,8,-50,-17,-6,-6,21:53:3@15/4/2015,999471588 
0,-15,-20,-40,8,-50,-17,-6,-6,21:53:3@15/4/2015,999471589 
0,-15,-20,-40,8,-50,-17,-6,-6,21:53:3@15/4/2015,999471590 
0,-15,-20,-40,8,-50,-17,-6,-6,21:53:3@15/4/2015,999471591 
0,-15,-20,-40,8,-50,-17,-6,-6,21:53:3@15/4/2015,999471592 
0,-15,-20,-40,8,-50,-17,-6,-6,21:53:3@15/4/2015,999471593 
0,20,30,47,58,-63,16,8,8,21:53:3@15/4/2015,999471594 
0,20,30,47,58,-63,16,8,8,21:53:3@15/4/2015,999471595 
0,20,30,47,58,-63,16,8,8,21:53:3@15/4/2015,999471596 
0,20,30,47,58,-63,16,8,8,21:53:3@15/4/2015,999471597 
0,20,30,47,58,-63,16,8,8,21:53:3@15/4/2015,999471598 
0,20,30,47,58,-63,16,8,8,21:53:3@15/4/2015,999471599 
0,20,30,47,58,-63,16,8,8,21:53:3@15/4/2015,999471600 
0,20,30,47,58,-63,16,8,8,21:53:3@15/4/2015,999471601 
0,20,30,47,58,-63,16,8,8,21:53:3@15/4/2015,999471602 
0,20,30,47,58,-63,16,8,8,21:53:3@15/4/2015,999471603 
0,20,30,47,58,-63,16,8,8,21:53:3@15/4/2015,999471604 
0,20,30,47,58,-63,16,8,8,21:53:3@15/4/2015,999471605 
0,20,30,47,58,-63,16,8,8,21:53:3@15/4/2015,999471606 
0,20,30,47,58,-63,16,8,8,21:53:3@15/4/2015,999471607 
0,20,30,47,58,-63,16,8,8,21:53:3@15/4/2015,999471608 
0,12,20,33,-3,-55,4,2,3,21:53:3@15/4/2015,999471609 
0,12,20,33,-3,-55,4,2,3,21:53:3@15/4/2015,999471610 
0,12,20,33,-3,-55,4,2,3,21:53:3@15/4/2015,999471611 
0,12,20,33,-3,-55,4,2,3,21:53:3@15/4/2015,999471612 
0,12,20,33,-3,-55,4,2,3,21:53:3@15/4/2015,999471613 
0,12,20,33,-3,-55,4,2,3,21:53:3@15/4/2015,999471614 
0,12,20,33,-3,-55,4,2,3,21:53:3@15/4/2015,999471615 
0,12,20,33,-3,-55,4,2,3,21:53:3@15/4/2015,999471616 
0,16,23,49,-1,-10,34,17,9,21:53:3@15/4/2015,999471617 
0,16,23,49,-1,-10,34,17,9,21:53:3@15/4/2015,999471618 
0,16,23,49,-1,-10,34,17,9,21:53:3@15/4/2015,999471619 
0,16,23,49,-1,-10,34,17,9,21:53:3@15/4/2015,999471620 
0,16,23,49,-1,-10,34,17,9,21:53:3@15/4/2015,999471621 
0,16,23,49,-1,-10,34,17,9,21:53:3@15/4/2015,999471622 
0,16,23,49,-1,-10,34,17,9,21:53:3@15/4/2015,999471623 
0,16,23,49,-1,-10,34,17,9,21:53:3@15/4/2015,999471624 
0,16,23,49,-1,-10,34,17,9,21:53:3@15/4/2015,999471625 
0,-14,-13,11,-118,-19,-4,-9,-13,21:53:3@15/4/2015,999471626 
0,-14,-13,11,-118,-19,-4,-9,-13,21:53:3@15/4/2015,999471627 
0,-14,-13,11,-118,-19,-4,-9,-13,21:53:3@15/4/2015,999471628 
0,-14,-13,11,-118,-19,-4,-9,-13,21:53:3@15/4/2015,999471629 
0,-14,-13,11,-118,-19,-4,-9,-13,21:53:3@15/4/2015,999471630 
0,-48,-79,-98,114,-33,-70,-35,-28,21:53:3@15/4/2015,999471631 
0,-48,-79,-98,114,-33,-70,-35,-28,21:53:3@15/4/2015,999471632 
0,-48,-79,-98,114,-33,-70,-35,-28,21:53:3@15/4/2015,999471633 
0,-48,-79,-98,114,-33,-70,-35,-28,21:53:3@15/4/2015,999471634 
0,-48,-79,-98,114,-33,-70,-35,-28,21:53:3@15/4/2015,999471635 
0,-48,-79,-98,114,-33,-70,-35,-28,21:53:3@15/4/2015,999471636 
0,-48,-79,-98,114,-33,-70,-35,-28,21:53:3@15/4/2015,999471637 
0,-48,-79,-98,114,-33,-70,-35,-28,21:53:3@15/4/2015,999471638 
0,-48,-79,-98,114,-33,-70,-35,-28,21:53:3@15/4/2015,999471639 
0,-48,-79,-98,114,-33,-70,-35,-28,21:53:3@15/4/2015,999471640 
0,-48,-79,-98,114,-33,-70,-35,-28,21:53:3@15/4/2015,999471641 
0,-48,-79,-98,114,-33,-70,-35,-28,21:53:3@15/4/2015,999471642 
0,-48,-79,-98,114,-33,-70,-35,-28,21:53:3@15/4/2015,999471643 
0,-48,-79,-98,114,-33,-70,-35,-28,21:53:3@15/4/2015,999471644 
0,-48,-79,-98,114,-33,-70,-35,-28,21:53:3@15/4/2015,999471645 
0,-48,-79,-98,114,-33,-70,-35,-28,21:53:3@15/4/2015,999471646 
0,-48,-79,-98,114,-33,-70,-35,-28,21:53:3@15/4/2015,999471647 
0,-34,-62,-81,-15,-91,-54,-31,-22,21:53:3@15/4/2015,999471648 
0,-34,-62,-81,-15,-91,-54,-31,-22,21:53:3@15/4/2015,999471649 
0,-34,-62,-81,-15,-91,-54,-31,-22,21:53:3@15/4/2015,999471650 
0,-34,-62,-81,-15,-91,-54,-31,-22,21:53:3@15/4/2015,999471651 
0,-34,-62,-81,-15,-91,-54,-31,-22,21:53:3@15/4/2015,999471652 
0,-34,-62,-81,-15,-91,-54,-31,-22,21:53:3@15/4/2015,999471653 
0,18,44,-62,-124,33,3,11,14,21:53:3@15/4/2015,999471654 
0,18,44,-62,-124,33,3,11,14,21:53:3@15/4/2015,999471655 
0,18,44,-62,-124,33,3,11,14,21:53:3@15/4/2015,999471656 
0,18,44,-62,-124,33,3,11,14,21:53:3@15/4/2015,999471657 
0,18,44,-62,-124,33,3,11,14,21:53:3@15/4/2015,999471658 
0,18,44,-62,-124,33,3,11,14,21:53:3@15/4/2015,999471659 
0,18,44,-62,-124,33,3,11,14,21:53:3@15/4/2015,999471660 
0,18,44,-62,-124,33,3,11,14,21:53:3@15/4/2015,999471661 
0,18,44,-62,-124,33,3,11,14,21:53:3@15/4/2015,999471662 
0,18,44,-62,-124,33,3,11,14,21:53:3@15/4/2015,999471663 
0,18,44,-62,-124,33,3,11,14,21:53:3@15/4/2015,999471664 
0,18,44,-62,-124,33,3,11,14,21:53:3@15/4/2015,999471665 
0,18,44,-62,-124,33,3,11,14,21:53:3@15/4/2015,999471666 
0,18,44,-62,-124,33,3,11,14,21:53:3@15/4/2015,999471667 
0,18,44,-62,-124,33,3,11,14,21:53:3@15/4/2015,999471668 
0,-3,-1,-16,60,36,2,1,2,21:53:3@15/4/2015,999471669 
0,-3,-1,-16,60,36,2,1,2,21:53:3@15/4/2015,999471670 
0,-3,-1,-16,60,36,2,1,2,21:53:3@15/4/2015,999471671 
0,-3,-1,-16,60,36,2,1,2,21:53:3@15/4/2015,999471672 
0,-3,-1,-16,60,36,2,1,2,21:53:3@15/4/2015,999471673 
0,-3,-1,-16,60,36,2,1,2,21:53:3@15/4/2015,999471674 
0,-3,-1,-16,60,36,2,1,2,21:53:3@15/4/2015,999471675 
0,-24,-31,-3,50,-26,-27,-19,-16,21:53:3@15/4/2015,999471677 
0,-24,-31,-3,50,-26,-27,-19,-16,21:53:3@15/4/2015,999471678 
0,-24,-31,-3,50,-26,-27,-19,-16,21:53:3@15/4/2015,999471679 
0,-24,-31,-3,50,-26,-27,-19,-16,21:53:3@15/4/2015,999471680 
0,-24,-31,-3,50,-26,-27,-19,-16,21:53:3@15/4/2015,999471681 
0,-24,-31,-3,50,-26,-27,-19,-16,21:53:3@15/4/2015,999471682 
0,-24,-31,-3,50,-26,-27,-19,-16,21:53:3@15/4/2015,999471683 
0,-24,-31,-3,50,-26,-27,-19,-16,21:53:3@15/4/2015,999471684 
0,-24,-31,-3,50,-26,-27,-19,-16,21:53:3@15/4/2015,999471685 
0,10,10,2,89,-14,18,10,8,21:53:3@15/4/2015,999471686 
0,10,10,2,89,-14,18,10,8,21:53:3@15/4/2015,999471687 
0,10,10,2,89,-14,18,10,8,21:53:3@15/4/2015,999471688 
0,10,10,2,89,-14,18,10,8,21:53:3@15/4/2015,999471689 
0,10,10,2,89,-14,18,10,8,21:53:3@15/4/2015,999471690 
0,27,30,60,-75,60,52,22,16,21:53:3@15/4/2015,999471691 
0,27,30,60,-75,60,52,22,16,21:53:3@15/4/2015,999471692 
0,27,30,60,-75,60,52,22,16,21:53:3@15/4/2015,999471693 
0,27,30,60,-75,60,52,22,16,21:53:3@15/4/2015,999471694 
0,27,30,60,-75,60,52,22,16,21:53:3@15/4/2015,999471695 
0,27,30,60,-75,60,52,22,16,21:53:3@15/4/2015,999471696 
0,27,30,60,-75,60,52,22,16,21:53:3@15/4/2015,999471697 
0,27,30,60,-75,60,52,22,16,21:53:3@15/4/2015,999471698 
0,27,30,60,-75,60,52,22,16,21:53:3@15/4/2015,999471699 
0,27,30,60,-75,60,52,22,16,21:53:3@15/4/2015,999471700 
0,27,30,60,-75,60,52,22,16,21:53:3@15/4/2015,999471701 
0,27,30,60,-75,60,52,22,16,21:53:3@15/4/2015,999471702 
0,27,30,60,-75,60,52,22,16,21:53:3@15/4/2015,999471703 
0,27,30,60,-75,60,52,22,16,21:53:3@15/4/2015,999471704 
0,27,30,60,-75,60,52,22,16,21:53:3@15/4/2015,999471705 
0,27,30,60,-75,60,52,22,16,21:53:3@15/4/2015,999471706 
0,27,30,60,-75,60,52,22,16,21:53:3@15/4/2015,999471707 
0,4,27,95,34,21,-6,-2,-1,21:53:3@15/4/2015,999471708 
0,4,27,95,34,21,-6,-2,-1,21:53:3@15/4/2015,999471709 
0,4,27,95,34,21,-6,-2,-1,21:53:3@15/4/2015,999471710 
0,4,27,95,34,21,-6,-2,-1,21:53:3@15/4/2015,999471711 
0,4,27,95,34,21,-6,-2,-1,21:53:3@15/4/2015,999471712 
0,4,27,95,34,21,-6,-2,-1,21:53:3@15/4/2015,999471713 
0,9,12,17,-13,-67,2,2,4,21:53:3@15/4/2015,999471714 
0,9,12,17,-13,-67,2,2,4,21:53:3@15/4/2015,999471715 
0,9,12,17,-13,-67,2,2,4,21:53:3@15/4/2015,999471716 
0,9,12,17,-13,-67,2,2,4,21:53:3@15/4/2015,999471717 
0,9,12,17,-13,-67,2,2,4,21:53:3@15/4/2015,999471718 
0,9,12,17,-13,-67,2,2,4,21:53:3@15/4/2015,999471719 
0,9,12,17,-13,-67,2,2,4,21:53:3@15/4/2015,999471720 
0,9,12,17,-13,-67,2,2,4,21:53:3@15/4/2015,999471721 
0,9,12,17,-13,-67,2,2,4,21:53:3@15/4/2015,999471722 
0,9,12,17,-13,-67,2,2,4,21:53:3@15/4/2015,999471723 
0,9,12,17,-13,-67,2,2,4,21:53:3@15/4/2015,999471724 
0,9,12,17,-13,-67,2,2,4,21:53:3@15/4/2015,999471725 
0,9,12,17,-13,-67,2,2,4,21:53:3@15/4/2015,999471726 
0,9,12,17,-13,-67,2,2,4,21:53:3@15/4/2015,999471727 
0,9,12,17,-13,-67,2,2,4,21:53:3@15/4/2015,999471728 
0,-1,-15,-5,4,106,18,4,0,21:53:3@15/4/2015,999471729 
0,-1,-15,-5,4,106,18,4,0,21:53:3@15/4/2015,999471730 
0,-1,-15,-5,4,106,18,4,0,21:53:3@15/4/2015,999471731 
0,-1,-15,-5,4,106,18,4,0,21:53:3@15/4/2015,999471732 
0,-1,-15,-5,4,106,18,4,0,21:53:3@15/4/2015,999471733 
0,-1,-15,-5,4,106,18,4,0,21:53:3@15/4/2015,999471734 
0,-1,-15,-5,4,106,18,4,0,21:53:3@15/4/2015,999471735 
0,6,4,-4,-13,-99,1,3,0,21:53:3@15/4/2015,999471736 
0,-3,1,16,-71,11,2,1,-4,21:53:3@15/4/2015,999471737 
0,-3,1,16,-71,11,2,1,-4,21:53:3@15/4/2015,999471738 
0,-3,1,16,-71,11,2,1,-4,21:53:3@15/4/2015,999471739 
0,-3,1,16,-71,11,2,1,-4,21:53:3@15/4/2015,999471740 
0,-3,1,16,-71,11,2,1,-4,21:53:3@15/4/2015,999471741 
0,-3,1,16,-71,11,2,1,-4,21:53:3@15/4/2015,999471742 
0,-3,1,16,-71,11,2,1,-4,21:53:3@15/4/2015,999471743 
0,-3,1,16,-71,11,2,1,-4,21:53:3@15/4/2015,999471744 
0,-3,1,16,-71,11,2,1,-4,21:53:3@15/4/2015,999471745 
0,18,35,38,-116,4,21,11,8,21:53:3@15/4/2015,999471746 
0,18,35,38,-116,4,21,11,8,21:53:3@15/4/2015,999471747 
0,18,35,38,-116,4,21,11,8,21:53:3@15/4/2015,999471748 
0,18,35,38,-116,4,21,11,8,21:53:3@15/4/2015,999471749 
0,18,35,38,-116,4,21,11,8,21:53:3@15/4/2015,999471750 
